signal
0.35
0.35
0.35
0.35
0.35
0.35
0.35
0.35
0.35
0.02
-0.21
-0.33
-0.37
-0.335
-0.285
-0.23
-0.215
-0.2
-0.19
-0.2
-0.2
-0.21
-0.23
-0.25
-0.255
-0.245
-0.24
-0.215
-0.235
-0.23
-0.23
-0.205
-0.18
-0.165
-0.195
-0.21
-0.215
-0.195
-0.17
-0.155
-0.175
-0.195
-0.21
-0.2
-0.2
-0.195
-0.185
-0.185
-0.18
-0.175
-0.175
-0.165
-0.14
-0.12
-0.115
-0.13
-0.155
-0.19
-0.19
-0.185
-0.18
-0.16
-0.14
-0.13
-0.11
-0.12
-0.13
-0.13
-0.125
-0.095
-0.095
-0.09
-0.08
-0.075
-0.07
-0.075
-0.065
-0.055
-0.06
-0.055
-0.04
-0.03
-0.02
-0.015
-0.015
-0.01
0.015
0.035
0.025
0.015
0.015
0.025
0.025
0.04
0.04
0.03
0.015
0.02
0.035
0.045
0.05
0.025
0.02
0.02
0.01
0.01
0
-0.005
-0.025
-0.02
-0.03
-0.03
-0.035
-0.045
-0.055
-0.06
-0.065
-0.075
-0.08
-0.075
-0.075
-0.075
-0.07
-0.075
-0.08
-0.09
-0.1
-0.095
-0.095
-0.085
-0.095
-0.1
-0.1
-0.115
-0.115
-0.13
-0.14
-0.15
-0.16
-0.145
-0.155
-0.16
-0.17
-0.185
-0.175
-0.17
-0.165
-0.17
-0.17
-0.165
-0.18
-0.18
-0.2
-0.2
-0.215
-0.205
-0.21
-0.205
-0.21
-0.22
-0.225
-0.225
-0.24
-0.225
-0.21
-0.205
-0.195
-0.19
-0.2
-0.19
-0.19
-0.185
-0.17
-0.17
-0.175
-0.165
-0.165
-0.185
-0.185
-0.205
-0.205
-0.21
-0.195
-0.195
-0.19
-0.195
-0.195
-0.195
-0.185
-0.175
-0.175
-0.2
-0.225
-0.25
-0.24
-0.24
-0.24
-0.25
-0.26
-0.27
-0.28
-0.305
-0.335
-0.35
-0.34
-0.285
-0.205
-0.135
-0.095
-0.045
0.01
0.075
0.14
0.175
0.135
0.045
-0.155
-0.425
-0.71
-0.915
-1.09
-1.255
-1.395
-1.465
-1.505
-1.49
-1.45
-1.39
-1.34
-1.27
-1.155
-1.025
-0.95
-0.93
-0.93
-0.91
-0.885
-0.865
-0.84
-0.8
-0.755
-0.715
-0.66
-0.63
-0.58
-0.54
-0.51
-0.465
-0.435
-0.395
-0.365
-0.315
-0.265
-0.2
-0.155
-0.09
-0.04
-0.015
-0.01
0.005
0.03
0.055
0.08
0.085
0.09
0.11
0.11
0.13
0.15
0.155
0.15
0.18
0.185
0.205
0.22
0.235
0.235
0.255
0.27
0.29
0.29
0.3
0.3
0.305
0.325
0.315
0.31
0.315
0.315
0.345
0.36
0.37
0.375
0.375
0.365
0.375
0.385
0.41
0.405
0.4
0.4
0.405
0.4
0.41
0.395
0.4
0.385
0.39
0.395
0.385
0.38
0.355
0.355
0.355
0.35
0.325
0.3
0.28
0.25
0.25
0.25
0.25
0.235
0.21
0.175
0.165
0.16
0.145
0.14
0.145
0.13
0.1
0.08
0.04
0.015
-0.01
-0.025
-0.025
-0.03
-0.04
-0.045
-0.07
-0.105
-0.08
-0.075
-0.085
-0.09
-0.11
-0.13
-0.12
-0.115
-0.125
-0.15
-0.17
-0.16
-0.16
-0.15
-0.155
-0.16
-0.17
-0.185
-0.18
-0.18
-0.19
-0.18
-0.17
-0.16
-0.14
-0.14
-0.145
-0.17
-0.18
-0.175
-0.16
-0.155
-0.155
-0.165
-0.15
-0.155
-0.15
-0.145
-0.145
-0.165
-0.195
-0.205
-0.19
-0.18
-0.165
-0.17
-0.16
-0.17
-0.165
-0.17
-0.17
-0.17
-0.17
-0.185
-0.19
-0.18
-0.18
-0.18
-0.175
-0.2
-0.21
-0.2
-0.2
-0.21
-0.215
-0.21
-0.2
-0.175
-0.16
-0.145
-0.145
-0.135
-0.14
-0.135
-0.13
-0.12
-0.115
-0.11
-0.105
-0.1
-0.095
-0.11
-0.14
-0.175
-0.18
-0.18
-0.18
-0.165
-0.175
-0.175
-0.175
-0.165
-0.165
-0.165
-0.175
-0.165
-0.16
-0.155
-0.15
-0.155
-0.16
-0.16
-0.155
-0.145
-0.15
-0.15
-0.185
-0.2
-0.2
-0.195
-0.19
-0.19
-0.195
-0.2
-0.195
-0.185
-0.175
-0.175
-0.155
-0.17
-0.17
-0.165
-0.15
-0.16
-0.165
-0.175
-0.17
-0.17
-0.185
-0.215
-0.225
-0.19
-0.125
-0.04
0.05
0.125
0.215
0.32
0.415
0.5
0.605
0.725
0.845
0.94
1.06
1.11
1.1
1.005
0.86
0.615
0.24
-0.11
-0.335
-0.46
-0.515
-0.54
-0.51
-0.44
-0.385
-0.36
-0.35
-0.335
-0.32
-0.295
-0.3
-0.3
-0.325
-0.335
-0.335
-0.335
-0.325
-0.31
-0.3
-0.28
-0.26
-0.24
-0.245
-0.26
-0.27
-0.28
-0.28
-0.275
-0.27
-0.275
-0.28
-0.255
-0.25
-0.24
-0.235
-0.235
-0.235
-0.24
-0.235
-0.235
-0.23
-0.24
-0.225
-0.23
-0.225
-0.21
-0.195
-0.215
-0.22
-0.24
-0.23
-0.23
-0.215
-0.21
-0.21
-0.22
-0.205
-0.18
-0.185
-0.19
-0.19
-0.195
-0.16
-0.14
-0.13
-0.125
-0.13
-0.14
-0.13
-0.12
-0.125
-0.125
-0.145
-0.125
-0.12
-0.125
-0.115
-0.12
-0.14
-0.15
-0.145
-0.135
-0.11
-0.105
-0.1
-0.085
-0.095
-0.08
-0.065
-0.07
-0.07
-0.075
-0.07
-0.06
-0.055
-0.05
-0.075
-0.065
-0.065
-0.07
-0.08
-0.08
-0.08
-0.08
-0.08
-0.08
-0.075
-0.09
-0.09
-0.085
-0.09
-0.075
-0.075
-0.07
-0.075
-0.09
-0.075
-0.065
-0.07
-0.07
-0.085
-0.09
-0.09
-0.08
-0.1
-0.105
-0.115
-0.12
-0.115
-0.1
-0.105
-0.12
-0.14
-0.14
-0.115
-0.07
-0.075
-0.09
-0.105
-0.115
-0.11
-0.11
-0.13
-0.135
-0.15
-0.13
-0.125
-0.125
-0.14
-0.155
-0.155
-0.155
-0.155
-0.145
-0.13
-0.13
-0.13
-0.12
-0.11
-0.09
-0.07
-0.06
-0.08
-0.075
-0.05
-0.015
0.005
0.02
0.02
0.04
0.06
0.08
0.105
0.11
0.095
0.12
0.2
0.265
0.265
0.22
0.2
0.19
0.15
0.035
-0.225
-0.625
-1.09
-1.475
-1.745
-1.895
-1.955
-1.995
-2.01
-2
-1.965
-1.905
-1.845
-1.75
-1.605
-1.475
-1.35
-1.275
-1.235
-1.18
-1.105
-1.035
-0.94
-0.83
-0.77
-0.715
-0.665
-0.605
-0.52
-0.465
-0.42
-0.4
-0.39
-0.375
-0.34
-0.305
-0.27
-0.19
-0.125
-0.06
-0.005
0.05
0.11
0.15
0.185
0.21
0.23
0.26
0.285
0.325
0.33
0.325
0.35
0.39
0.43
0.47
0.465
0.485
0.505
0.52
0.54
0.56
0.585
0.6
0.62
0.645
0.655
0.675
0.68
0.695
0.715
0.755
0.785
0.805
0.795
0.805
0.82
0.84
0.865
0.855
0.85
0.835
0.83
0.835
0.825
0.8
0.79
0.77
0.78
0.77
0.755
0.715
0.68
0.665
0.64
0.615
0.605
0.585
0.56
0.53
0.495
0.46
0.435
0.4
0.36
0.325
0.29
0.275
0.245
0.205
0.185
0.185
0.175
0.165
0.155
0.14
0.13
0.11
0.095
0.075
0.055
0.035
0.015
-0.005
0.01
0.015
0
-0.02
-0.04
-0.055
-0.035
-0.005
0.005
-0.005
-0.025
-0.02
-0.01
-0.015
-0.02
-0.03
-0.045
-0.06
-0.065
-0.06
-0.05
-0.06
-0.085
-0.09
-0.11
-0.105
-0.095
-0.085
-0.075
-0.08
-0.095
-0.095
-0.09
-0.095
-0.115
-0.115
-0.12
-0.11
-0.095
-0.105
-0.11
-0.125
-0.115
-0.09
-0.095
-0.11
-0.125
-0.135
-0.13
-0.125
-0.125
-0.135
-0.145
-0.155
-0.145
-0.13
-0.135
-0.14
-0.155
-0.155
-0.135
-0.125
-0.13
-0.135
-0.145
-0.165
-0.19
-0.175
-0.15
-0.135
-0.125
-0.145
-0.11
-0.09
-0.07
-0.075
-0.09
-0.135
-0.15
-0.155
-0.155
-0.12
-0.1
-0.08
-0.065
-0.075
-0.095
-0.1
-0.095
-0.085
-0.08
-0.08
-0.08
-0.095
-0.12
-0.125
-0.125
-0.125
-0.13
-0.135
-0.13
-0.13
-0.12
-0.115
-0.105
-0.12
-0.145
-0.135
-0.11
-0.11
-0.11
-0.125
-0.105
-0.1
-0.08
-0.05
-0.03
-0.07
-0.12
-0.185
-0.215
-0.22
-0.185
-0.16
-0.16
-0.145
-0.15
-0.13
-0.14
-0.15
-0.17
-0.19
-0.185
-0.17
-0.175
-0.165
-0.16
-0.18
-0.175
-0.185
-0.185
-0.19
-0.205
-0.21
-0.215
-0.215
-0.18
-0.125
-0.075
0
0.085
0.19
0.29
0.36
0.44
0.535
0.68
0.8
0.905
0.995
1.025
1.005
0.92
0.79
0.57
0.225
-0.12
-0.335
-0.43
-0.505
-0.52
-0.495
-0.44
-0.4
-0.365
-0.37
-0.385
-0.36
-0.37
-0.38
-0.39
-0.415
-0.405
-0.405
-0.405
-0.415
-0.41
-0.395
-0.385
-0.385
-0.385
-0.365
-0.355
-0.345
-0.335
-0.355
-0.39
-0.4
-0.39
-0.36
-0.33
-0.34
-0.38
-0.395
-0.405
-0.39
-0.395
-0.39
-0.4
-0.4
-0.395
-0.39
-0.385
-0.39
-0.385
-0.385
-0.38
-0.37
-0.34
-0.335
-0.335
-0.33
-0.325
-0.35
-0.365
-0.355
-0.345
-0.34
-0.34
-0.36
-0.35
-0.345
-0.35
-0.355
-0.345
-0.34
-0.335
-0.345
-0.365
-0.35
-0.35
-0.335
-0.33
-0.31
-0.29
-0.285
-0.265
-0.275
-0.28
-0.3
-0.305
-0.305
-0.295
-0.285
-0.305
-0.32
-0.32
-0.305
-0.275
-0.265
-0.275
-0.285
-0.28
-0.27
-0.26
-0.25
-0.255
-0.255
-0.265
-0.265
-0.25
-0.26
-0.245
-0.26
-0.285
-0.29
-0.29
-0.28
-0.285
-0.285
-0.28
-0.31
-0.31
-0.3
-0.285
-0.275
-0.295
-0.305
-0.3
-0.3
-0.32
-0.3
-0.305
-0.315
-0.305
-0.295
-0.295
-0.305
-0.335
-0.335
-0.34
-0.335
-0.335
-0.345
-0.36
-0.365
-0.355
-0.335
-0.33
-0.32
-0.31
-0.295
-0.275
-0.25
-0.23
-0.21
-0.2
-0.175
-0.15
-0.14
-0.145
-0.155
-0.155
-0.13
-0.13
-0.115
-0.105
-0.06
-0.04
-0.045
-0.085
-0.16
-0.26
-0.43
-0.69
-1.06
-1.425
-1.73
-1.93
-2.035
-2.065
-2.06
-2.08
-2.055
-1.995
-1.9
-1.805
-1.705
-1.635
-1.54
-1.44
-1.325
-1.235
-1.145
-1.065
-0.995
-0.94
-0.915
-0.87
-0.83
-0.76
-0.69
-0.655
-0.625
-0.61
-0.585
-0.565
-0.53
-0.49
-0.47
-0.42
-0.35
-0.275
-0.205
-0.155
-0.12
-0.09
-0.03
0.02
0.06
0.08
0.095
0.13
0.15
0.17
0.18
0.185
0.21
0.225
0.245
0.27
0.3
0.315
0.31
0.315
0.35
0.37
0.365
0.37
0.385
0.4
0.425
0.47
0.49
0.505
0.505
0.53
0.53
0.535
0.54
0.545
0.545
0.57
0.58
0.57
0.575
0.56
0.55
0.545
0.555
0.55
0.56
0.55
0.53
0.5
0.48
0.465
0.465
0.44
0.405
0.395
0.375
0.36
0.355
0.345
0.29
0.25
0.22
0.195
0.175
0.15
0.12
0.095
0.065
0.055
0.035
0.02
-0.005
-0.025
-0.04
-0.065
-0.07
-0.08
-0.1
-0.115
-0.135
-0.13
-0.14
-0.155
-0.16
-0.17
-0.17
-0.175
-0.18
-0.205
-0.21
-0.225
-0.215
-0.2
-0.185
-0.2
-0.22
-0.23
-0.23
-0.21
-0.195
-0.205
-0.215
-0.225
-0.21
-0.2
-0.195
-0.2
-0.22
-0.23
-0.235
-0.23
-0.23
-0.225
-0.24
-0.255
-0.25
-0.23
-0.225
-0.24
-0.24
-0.26
-0.25
-0.245
-0.23
-0.215
-0.22
-0.225
-0.225
-0.23
-0.215
-0.215
-0.245
-0.25
-0.245
-0.24
-0.24
-0.23
-0.23
-0.245
-0.24
-0.245
-0.24
-0.245
-0.245
-0.25
-0.25
-0.225
-0.24
-0.24
-0.235
-0.24
-0.24
-0.24
-0.24
-0.255
-0.255
-0.26
-0.225
-0.225
-0.22
-0.215
-0.225
-0.235
-0.25
-0.245
-0.245
-0.25
-0.255
-0.24
-0.215
-0.21
-0.215
-0.225
-0.23
-0.23
-0.225
-0.225
-0.23
-0.225
-0.22
-0.22
-0.21
-0.19
-0.175
-0.165
-0.17
-0.175
-0.17
-0.155
-0.145
-0.14
-0.135
-0.135
-0.135
-0.14
-0.145
-0.155
-0.16
-0.18
-0.185
-0.185
-0.18
-0.195
-0.205
-0.215
-0.22
-0.22
-0.225
-0.22
-0.215
-0.21
-0.21
-0.205
-0.195
-0.2
-0.2
-0.2
-0.185
-0.185
-0.19
-0.185
-0.19
-0.2
-0.21
-0.215
-0.225
-0.25
-0.245
-0.23
-0.235
-0.235
-0.22
-0.215
-0.21
-0.205
-0.195
-0.2
-0.215
-0.235
-0.235
-0.225
-0.17
-0.085
0.015
0.115
0.205
0.295
0.405
0.535
0.685
0.825
0.95
1.05
1.115
1.11
0.995
0.755
0.325
-0.135
-0.42
-0.54
-0.545
-0.52
-0.46
-0.41
-0.37
-0.365
-0.34
-0.35
-0.35
-0.375
-0.38
-0.38
-0.355
-0.33
-0.34
-0.345
-0.325
-0.3
-0.275
-0.28
-0.29
-0.31
-0.31
-0.3
-0.295
-0.3
-0.315
-0.34
-0.335
-0.305
-0.285
-0.28
-0.295
-0.3
-0.295
-0.285
-0.275
-0.285
-0.28
-0.285
-0.27
-0.265
-0.27
-0.27
-0.27
-0.26
-0.24
-0.255
-0.255
-0.255
-0.255
-0.265
-0.26
-0.25
-0.255
-0.255
-0.26
-0.27
-0.255
-0.26
-0.275
-0.26
-0.25
-0.235
-0.225
-0.225
-0.23
-0.22
-0.215
-0.205
-0.195
-0.2
-0.205
-0.22
-0.21
-0.22
-0.21
-0.205
-0.185
-0.195
-0.195
-0.195
-0.175
-0.15
-0.14
-0.145
-0.16
-0.16
-0.145
-0.135
-0.125
-0.125
-0.14
-0.13
-0.11
-0.105
-0.11
-0.13
-0.135
-0.14
-0.14
-0.14
-0.125
-0.125
-0.11
-0.105
-0.125
-0.12
-0.11
-0.11
-0.13
-0.145
-0.145
-0.14
-0.14
-0.135
-0.16
-0.165
-0.165
-0.155
-0.145
-0.155
-0.17
-0.175
-0.16
-0.155
-0.15
-0.165
-0.185
-0.19
-0.18
-0.16
-0.16
-0.16
-0.17
-0.19
-0.175
-0.18
-0.18
-0.165
-0.155
-0.145
-0.11
-0.07
-0.05
-0.025
-0.005
0
0.03
0.06
0.075
0.085
0.075
0.09
0.135
0.155
0.145
0.09
-0.025
-0.24
-0.58
-0.965
-1.34
-1.695
-1.98
-2.125
-2.135
-2.125
-2.09
-2.075
-2.015
-1.95
-1.85
-1.735
-1.645
-1.55
-1.425
-1.29
-1.185
-1.105
-1.035
-0.965
-0.9
-0.83
-0.765
-0.705
-0.66
-0.635
-0.575
-0.52
-0.46
-0.405
-0.35
-0.29
-0.215
-0.16
-0.095
-0.025
0.02
0.075
0.12
0.135
0.18
0.2
0.22
0.25
0.27
0.28
0.295
0.315
0.345
0.36
0.375
0.37
0.39
0.405
0.435
0.455
0.47
0.49
0.52
0.545
0.555
0.585
0.6
0.62
0.635
0.67
0.68
0.69
0.685
0.695
0.725
0.74
0.755
0.765
0.765
0.765
0.78
0.8
0.815
0.79
0.79
0.765
0.765
0.78
0.78
0.78
0.745
0.715
0.71
0.71
0.7
0.67
0.63
0.58
0.535
0.495
0.465
0.445
0.41
0.395
0.375
0.365
0.345
0.32
0.28
0.245
0.215
0.195
0.18
0.15
0.12
0.095
0.095
0.095
0.08
0.065
0.04
0.02
0
0
0
-0.02
-0.02
-0.03
-0.035
-0.03
-0.03
-0.04
-0.07
-0.08
-0.065
-0.07
-0.055
-0.07
-0.085
-0.09
-0.09
-0.06
-0.055
-0.065
-0.095
-0.105
-0.105
-0.09
-0.08
-0.075
-0.085
-0.1
-0.075
-0.08
-0.08
-0.085
-0.11
-0.12
-0.11
-0.095
-0.08
-0.09
-0.09
-0.105
-0.115
-0.1
-0.095
-0.11
-0.125
-0.145
-0.16
-0.155
-0.15
-0.135
-0.125
-0.13
-0.11
-0.125
-0.12
-0.13
-0.145
-0.15
-0.145
-0.14
-0.145
-0.15
-0.16
-0.17
-0.16
-0.155
-0.155
-0.155
-0.15
-0.16
-0.16
-0.16
-0.145
-0.15
-0.155
-0.18
-0.175
-0.165
-0.155
-0.145
-0.165
-0.18
-0.17
-0.16
-0.165
-0.165
-0.16
-0.155
-0.145
-0.135
-0.115
-0.105
-0.095
-0.09
-0.085
-0.09
-0.095
-0.12
-0.15
-0.17
-0.165
-0.17
-0.17
-0.17
-0.18
-0.18
-0.17
-0.175
-0.18
-0.185
-0.19
-0.2
-0.175
-0.175
-0.165
-0.14
-0.14
-0.155
-0.155
-0.155
-0.16
-0.175
-0.19
-0.205
-0.205
-0.2
-0.19
-0.2
-0.21
-0.22
-0.21
-0.21
-0.205
-0.205
-0.2
-0.2
-0.185
-0.185
-0.185
-0.19
-0.205
-0.21
-0.215
-0.22
-0.25
-0.26
-0.235
-0.195
-0.135
-0.03
0.095
0.195
0.285
0.36
0.46
0.58
0.695
0.81
0.895
0.945
0.94
0.845
0.725
0.545
0.285
-0.025
-0.27
-0.405
-0.47
-0.49
-0.465
-0.425
-0.385
-0.35
-0.34
-0.315
-0.315
-0.33
-0.35
-0.36
-0.375
-0.38
-0.38
-0.38
-0.36
-0.345
-0.32
-0.31
-0.32
-0.335
-0.335
-0.33
-0.33
-0.325
-0.345
-0.335
-0.335
-0.34
-0.32
-0.325
-0.325
-0.325
-0.31
-0.305
-0.31
-0.315
-0.315
-0.305
-0.3
-0.295
-0.285
-0.295
-0.3
-0.31
-0.3
-0.275
-0.275
-0.28
-0.28
-0.29
-0.295
-0.28
-0.29
-0.285
-0.295
-0.3
-0.285
-0.26
-0.245
-0.225
-0.24
-0.265
-0.27
-0.26
-0.265
-0.235
-0.245
-0.25
-0.24
-0.24
-0.225
-0.22
-0.235
-0.235
-0.225
-0.22
-0.235
-0.25
-0.24
-0.23
-0.185
-0.175
-0.16
-0.17
-0.19
-0.205
-0.2
-0.215
-0.21
-0.19
-0.2
-0.205
-0.18
-0.175
-0.175
-0.18
-0.19
-0.205
-0.19
-0.185
-0.16
-0.175
-0.2
-0.22
-0.22
-0.2
-0.19
-0.17
-0.175
-0.185
-0.18
-0.18
-0.17
-0.17
-0.17
-0.225
-0.205
-0.215
-0.225
-0.225
-0.22
-0.215
-0.195
-0.195
-0.195
-0.215
-0.235
-0.22
-0.21
-0.18
-0.19
-0.18
-0.195
-0.215
-0.21
-0.21
-0.21
-0.225
-0.24
-0.26
-0.25
-0.24
-0.23
-0.22
-0.25
-0.27
-0.265
-0.275
-0.26
-0.255
-0.25
-0.25
-0.235
-0.22
-0.21
-0.21
-0.205
-0.21
-0.19
-0.175
-0.155
-0.08
0.015
0.085
0.12
0.115
0.1
0.09
0.02
-0.11
-0.395
-0.79
-1.175
-1.45
-1.645
-1.77
-1.845
-1.905
-1.915
-1.89
-1.875
-1.86
-1.775
-1.61
-1.445
-1.305
-1.21
-1.15
-1.05
-0.96
-0.91
-0.885
-0.86
-0.825
-0.79
-0.725
-0.67
-0.59
-0.575
-0.54
-0.495
-0.435
-0.36
-0.28
-0.22
-0.16
-0.1
-0.045
0
0.035
0.055
0.06
0.08
0.095
0.105
0.105
0.115
0.165
0.195
0.215
0.23
0.23
0.225
0.225
0.25
0.28
0.31
0.33
0.35
0.345
0.37
0.4
0.415
0.435
0.425
0.425
0.435
0.45
0.465
0.495
0.52
0.525
0.525
0.545
0.56
0.565
0.555
0.525
0.53
0.53
0.52
0.51
0.48
0.455
0.46
0.455
0.44
0.435
0.395
0.355
0.345
0.34
0.335
0.305
0.26
0.205
0.155
0.13
0.095
0.095
0.06
0.04
0.01
0.01
-0.015
-0.04
-0.06
-0.075
-0.065
-0.06
-0.06
-0.075
-0.1
-0.095
-0.1
-0.11
-0.12
-0.145
-0.155
-0.175
-0.17
-0.15
-0.155
-0.16
-0.185
-0.215
-0.22
-0.185
-0.18
-0.165
-0.18
-0.18
-0.175
-0.16
-0.135
-0.145
-0.145
-0.15
-0.13
-0.12
-0.135
-0.14
-0.145
-0.145
-0.145
-0.14
-0.16
-0.15
-0.155
-0.16
-0.155
-0.18
-0.18
-0.165
-0.17
-0.18
-0.2
-0.195
-0.185
-0.185
-0.195
-0.225
-0.215
-0.195
-0.16
-0.15
-0.175
-0.19
-0.205
-0.195
-0.18
-0.175
-0.17
-0.19
-0.16
-0.145
-0.135
-0.14
-0.145
-0.17
-0.16
-0.135
-0.125
-0.165
-0.2
-0.225
-0.215
-0.19
-0.17
-0.175
-0.185
-0.185
-0.155
-0.15
-0.135
-0.13
-0.125
-0.135
-0.12
-0.1
-0.09
-0.08
-0.08
-0.095
-0.09
-0.085
-0.11
-0.12
-0.13
-0.155
-0.135
-0.135
-0.125
-0.14
-0.155
-0.175
-0.15
-0.165
-0.165
-0.16
-0.185
-0.215
-0.21
-0.175
-0.145
-0.15
-0.17
-0.18
-0.15
-0.15
-0.135
-0.155
-0.17
-0.195
-0.185
-0.185
-0.17
-0.17
-0.18
-0.185
-0.185
-0.195
-0.21
-0.21
-0.2
-0.175
-0.165
-0.165
-0.185
-0.21
-0.24
-0.245
-0.245
-0.24
-0.215
-0.185
-0.125
-0.05
0.035
0.145
0.235
0.325
0.44
0.555
0.695
0.83
0.965
1.095
1.155
1.145
1.065
0.92
0.66
0.215
-0.185
-0.405
-0.48
-0.49
-0.46
-0.42
-0.37
-0.35
-0.34
-0.34
-0.34
-0.355
-0.385
-0.39
-0.375
-0.365
-0.37
-0.36
-0.355
-0.37
-0.335
-0.315
-0.305
-0.295
-0.31
-0.32
-0.305
-0.29
-0.275
-0.275
-0.265
-0.275
-0.285
-0.28
-0.275
-0.265
-0.27
-0.265
-0.25
-0.255
-0.265
-0.275
-0.3
-0.31
-0.3
-0.27
-0.255
-0.26
-0.265
-0.275
-0.245
-0.235
-0.26
-0.29
-0.305
-0.315
-0.305
-0.285
-0.265
-0.245
-0.24
-0.235
-0.235
-0.22
-0.2
-0.21
-0.225
-0.255
-0.235
-0.22
-0.205
-0.2
-0.2
-0.21
-0.235
-0.25
-0.25
-0.235
-0.215
-0.21
-0.2
-0.195
-0.18
-0.185
-0.18
-0.185
-0.155
-0.14
-0.12
-0.145
-0.185
-0.235
-0.225
-0.195
-0.155
-0.145
-0.125
-0.125
-0.12
-0.12
-0.125
-0.135
-0.135
-0.15
-0.135
-0.125
-0.12
-0.105
-0.1
-0.105
-0.12
-0.14
-0.135
-0.15
-0.15
-0.165
-0.16
-0.15
-0.165
-0.185
-0.185
-0.195
-0.19
-0.19
-0.2
-0.21
-0.23
-0.23
-0.205
-0.18
-0.185
-0.175
-0.175
-0.19
-0.19
-0.23
-0.275
-0.295
-0.29
-0.275
-0.25
-0.215
-0.18
-0.185
-0.17
-0.17
-0.13
-0.1
-0.065
-0.045
-0.055
-0.045
-0.03
-0.025
0
0.02
0.01
-0.03
-0.085
-0.195
-0.445
-0.835
-1.26
-1.635
-1.945
-2.13
-2.175
-2.175
-2.155
-2.13
-2.07
-1.985
-1.88
-1.77
-1.66
-1.545
-1.395
-1.21
-1.085
-1.005
-0.95
-0.9
-0.845
-0.775
-0.71
-0.67
-0.635
-0.59
-0.52
-0.455
-0.4
-0.345
-0.25
-0.165
-0.09
-0.03
0.04
0.095
0.14
0.16
0.175
0.215
0.24
0.275
0.275
0.285
0.315
0.32
0.34
0.355
0.38
0.385
0.4
0.425
0.465
0.495
0.505
0.515
0.555
0.6
0.625
0.63
0.63
0.645
0.655
0.69
0.71
0.72
0.72
0.715
0.72
0.735
0.735
0.755
0.74
0.73
0.74
0.76
0.77
0.75
0.73
0.71
0.7
0.69
0.68
0.66
0.635
0.6
0.575
0.545
0.495
0.455
0.44
0.42
0.395
0.38
0.365
0.355
0.315
0.28
0.25
0.24
0.23
0.215
0.195
0.18
0.16
0.15
0.125
0.115
0.09
0.055
0.04
0.01
-0.015
-0.035
-0.04
-0.045
-0.045
-0.03
-0.04
-0.03
-0.04
-0.05
-0.05
-0.055
-0.065
-0.065
-0.065
-0.07
-0.08
-0.105
-0.105
-0.105
-0.115
-0.105
-0.085
-0.085
-0.095
-0.09
-0.11
-0.12
-0.12
-0.12
-0.105
-0.11
-0.115
-0.135
-0.14
-0.125
-0.12
-0.11
-0.13
-0.14
-0.155
-0.155
-0.155
-0.16
-0.175
-0.195
-0.18
-0.17
-0.155
-0.14
-0.13
-0.14
-0.16
-0.175
-0.19
-0.21
-0.2
-0.18
-0.17
-0.18
-0.17
-0.185
-0.18
-0.195
-0.185
-0.18
-0.175
-0.185
-0.2
-0.225
-0.225
-0.205
-0.185
-0.19
-0.195
-0.185
-0.17
-0.17
-0.19
-0.21
-0.22
-0.225
-0.2
-0.185
-0.18
-0.21
-0.215
-0.21
-0.195
-0.205
-0.215
-0.205
-0.195
-0.2
-0.21
-0.215
-0.215
-0.205
-0.195
-0.205
-0.18
-0.165
-0.16
-0.13
-0.13
-0.135
-0.125
-0.145
-0.155
-0.185
-0.2
-0.21
-0.205
-0.195
-0.19
-0.19
-0.185
-0.185
-0.17
-0.18
-0.18
-0.185
-0.18
-0.19
-0.22
-0.255
-0.26
-0.27
-0.265
-0.24
-0.23
-0.205
-0.21
-0.24
-0.26
-0.265
-0.27
-0.255
-0.26
-0.265
-0.275
-0.265
-0.255
-0.235
-0.245
-0.26
-0.26
-0.27
-0.255
-0.23
-0.23
-0.245
-0.24
-0.26
-0.27
-0.28
-0.285
-0.29
-0.295
-0.29
-0.255
-0.2
-0.12
-0.05
0.015
0.09
0.18
0.265
0.37
0.48
0.595
0.705
0.79
0.85
0.855
0.795
0.685
0.515
0.28
0.015
-0.215
-0.39
-0.495
-0.555
-0.54
-0.485
-0.45
-0.44
-0.43
-0.445
-0.43
-0.415
-0.4
-0.4
-0.405
-0.42
-0.405
-0.395
-0.385
-0.375
-0.395
-0.41
-0.405
-0.365
-0.335
-0.32
-0.335
-0.34
-0.34
-0.335
-0.34
-0.335
-0.345
-0.35
-0.345
-0.335
-0.33
-0.32
-0.33
-0.335
-0.33
-0.33
-0.32
-0.31
-0.305
-0.305
-0.31
-0.31
-0.295
-0.3
-0.315
-0.32
-0.33
-0.315
-0.32
-0.32
-0.325
-0.31
-0.295
-0.285
-0.28
-0.3
-0.3
-0.285
-0.27
-0.245
-0.24
-0.26
-0.265
-0.28
-0.27
-0.28
-0.29
-0.29
-0.295
-0.27
-0.25
-0.235
-0.225
-0.245
-0.28
-0.285
-0.28
-0.26
-0.245
-0.24
-0.25
-0.255
-0.24
-0.225
-0.225
-0.23
-0.24
-0.235
-0.23
-0.205
-0.195
-0.195
-0.19
-0.195
-0.2
-0.205
-0.19
-0.21
-0.215
-0.22
-0.225
-0.205
-0.19
-0.195
-0.195
-0.205
-0.215
-0.18
-0.18
-0.19
-0.19
-0.19
-0.185
-0.165
-0.165
-0.19
-0.22
-0.23
-0.2
-0.205
-0.185
-0.2
-0.215
-0.24
-0.22
-0.21
-0.195
-0.22
-0.27
-0.27
-0.265
-0.245
-0.245
-0.24
-0.255
-0.265
-0.265
-0.26
-0.255
-0.23
-0.25
-0.26
-0.265
-0.26
-0.255
-0.265
-0.265
-0.275
-0.275
-0.27
-0.285
-0.295
-0.295
-0.295
-0.29
-0.25
-0.215
-0.21
-0.21
-0.225
-0.205
-0.185
-0.16
-0.13
-0.13
-0.135
-0.13
-0.11
-0.07
-0.06
-0.055
-0.035
0.03
0.115
0.16
0.16
0.12
0.11
0.1
0.075
-0.005
-0.16
-0.43
-0.82
-1.2
-1.525
-1.745
-1.865
-1.91
-1.955
-1.965
-1.94
-1.91
-1.9
-1.89
-1.87
-1.785
-1.67
-1.525
-1.455
-1.42
-1.37
-1.3
-1.19
-1.075
-0.99
-0.945
-0.89
-0.825
-0.78
-0.735
-0.7
-0.65
-0.605
-0.55
-0.525
-0.51
-0.51
-0.5
-0.49
-0.45
-0.415
-0.39
-0.335
-0.29
-0.23
-0.16
-0.095
-0.03
0.01
0.03
0.055
0.09
0.12
0.145
0.16
0.175
0.165
0.175
0.195
0.235
0.25
0.255
0.24
0.27
0.28
0.3
0.33
0.355
0.37
0.39
0.395
0.41
0.425
0.43
0.47
0.485
0.52
0.54
0.535
0.535
0.545
0.57
0.59
0.615
0.61
0.62
0.61
0.615
0.63
0.635
0.635
0.655
0.66
0.66
0.66
0.655
0.645
0.61
0.59
0.605
0.615
0.625
0.62
0.59
0.56
0.565
0.56
0.56
0.53
0.495
0.475
0.465
0.475
0.47
0.44
0.42
0.39
0.385
0.36
0.35
0.315
0.28
0.245
0.225
0.215
0.19
0.165
0.15
0.12
0.11
0.085
0.08
0.05
0.03
0.01
0.005
0.005
0
0.005
-0.015
-0.05
-0.075
-0.1
-0.105
-0.085
-0.06
-0.06
-0.045
-0.05
-0.05
-0.05
-0.07
-0.075
-0.08
-0.095
-0.105
-0.085
-0.09
-0.105
-0.1
-0.1
-0.085
-0.09
-0.11
-0.12
-0.11
-0.085
-0.075
-0.085
-0.1
-0.13
-0.13
-0.14
-0.145
-0.145
-0.145
-0.15
-0.15
-0.15
-0.135
-0.13
-0.135
-0.14
-0.13
-0.12
-0.12
-0.12
-0.12
-0.135
-0.14
-0.15
-0.13
-0.12
-0.12
-0.125
-0.14
-0.16
-0.18
-0.205
-0.23
-0.205
-0.2
-0.19
-0.195
-0.19
-0.21
-0.24
-0.24
-0.235
-0.21
-0.19
-0.185
-0.2
-0.2
-0.2
-0.175
-0.17
-0.185
-0.21
-0.22
-0.215
-0.22
-0.23
-0.24
-0.235
-0.225
-0.2
-0.175
-0.175
-0.175
-0.185
-0.185
-0.175
-0.175
-0.195
-0.225
-0.245
-0.23
-0.21
-0.2
-0.19
-0.2
-0.205
-0.21
-0.215
-0.215
-0.22
-0.21
-0.175
-0.145
-0.125
-0.135
-0.14
-0.145
-0.155
-0.15
-0.15
-0.145
-0.14
-0.165
-0.18
-0.165
-0.16
-0.155
-0.175
-0.205
-0.225
-0.21
-0.185
-0.175
-0.175
-0.2
-0.225
-0.23
-0.215
-0.21
-0.21
-0.205
-0.2
-0.17
-0.15
-0.15
-0.17
-0.19
-0.22
-0.205
-0.21
-0.205
-0.2
-0.21
-0.22
-0.235
-0.25
-0.245
-0.26
-0.285
-0.285
-0.27
-0.255
-0.23
-0.195
-0.18
-0.185
-0.18
-0.2
-0.195
-0.19
-0.21
-0.23
-0.205
-0.155
-0.075
0.01
0.095
0.18
0.27
0.355
0.455
0.56
0.675
0.785
0.905
1.005
1.03
0.995
0.875
0.625
0.22
-0.17
-0.39
-0.445
-0.475
-0.475
-0.42
-0.37
-0.345
-0.335
-0.34
-0.365
-0.38
-0.39
-0.4
-0.395
-0.38
-0.385
-0.385
-0.395
-0.375
-0.33
-0.3
-0.295
-0.325
-0.345
-0.35
-0.34
-0.32
-0.285
-0.27
-0.265
-0.27
-0.26
-0.295
-0.315
-0.32
-0.315
-0.295
-0.285
-0.275
-0.285
-0.275
-0.27
-0.265
-0.265
-0.27
-0.275
-0.28
-0.26
-0.26
-0.255
-0.26
-0.275
-0.26
-0.255
-0.25
-0.26
-0.265
-0.265
-0.28
-0.275
-0.265
-0.25
-0.24
-0.22
-0.19
-0.18
-0.21
-0.28
-0.355
-0.355
-0.3
-0.265
-0.25
-0.29
-0.33
-0.325
-0.28
-0.265
-0.25
-0.25
-0.245
-0.25
-0.25
-0.25
-0.24
-0.235
-0.235
-0.23
-0.195
-0.185
-0.165
-0.16
-0.175
-0.185
-0.165
-0.135
-0.135
-0.12
-0.14
-0.15
-0.14
-0.135
-0.15
-0.17
-0.165
-0.18
-0.175
-0.16
-0.15
-0.165
-0.155
-0.155
-0.15
-0.145
-0.145
-0.145
-0.145
-0.15
-0.165
-0.175
-0.16
-0.165
-0.19
-0.185
-0.19
-0.19
-0.185
-0.18
-0.205
-0.205
-0.21
-0.21
-0.205
-0.22
-0.215
-0.22
-0.2
-0.2
-0.195
-0.205
-0.23
-0.235
-0.23
-0.21
-0.22
-0.225
-0.235
-0.24
-0.21
-0.19
-0.13
-0.105
-0.08
-0.07
-0.055
-0.025
-0.005
0.01
0
-0.02
-0.01
0.03
0.06
0.055
-0.015
-0.125
-0.265
-0.53
-0.905
-1.31
-1.685
-1.99
-2.185
-2.26
-2.26
-2.25
-2.245
-2.205
-2.14
-2.08
-2.005
-1.905
-1.815
-1.72
-1.64
-1.5
-1.33
-1.2
-1.075
-1.015
-0.945
-0.905
-0.84
-0.77
-0.725
-0.69
-0.65
-0.61
-0.54
-0.48
-0.445
-0.395
-0.34
-0.255
-0.16
-0.095
-0.045
-0.005
0.05
0.1
0.145
0.165
0.17
0.195
0.22
0.235
0.26
0.285
0.31
0.315
0.335
0.345
0.36
0.37
0.385
0.395
0.405
0.44
0.47
0.49
0.5
0.52
0.525
0.54
0.58
0.605
0.61
0.615
0.64
0.66
0.675
0.685
0.685
0.67
0.685
0.7
0.705
0.705
0.7
0.7
0.705
0.695
0.7
0.7
0.685
0.655
0.655
0.635
0.63
0.62
0.58
0.545
0.525
0.49
0.47
0.43
0.385
0.345
0.305
0.29
0.27
0.25
0.205
0.165
0.14
0.125
0.13
0.115
0.1
0.06
0.04
0.04
0.035
0.025
-0.005
-0.06
-0.08
-0.085
-0.075
-0.09
-0.11
-0.13
-0.12
-0.15
-0.145
-0.145
-0.16
-0.16
-0.15
-0.15
-0.15
-0.16
-0.19
-0.185
-0.185
-0.18
-0.175
-0.18
-0.19
-0.22
-0.22
-0.225
-0.215
-0.195
-0.195
-0.21
-0.215
-0.23
-0.22
-0.22
-0.215
-0.24
-0.24
-0.24
-0.245
-0.245
-0.245
-0.255
-0.25
-0.25
-0.245
-0.24
-0.255
-0.27
-0.275
-0.275
-0.275
-0.285
-0.28
-0.28
-0.275
-0.28
-0.3
-0.305
-0.285
-0.28
-0.28
-0.29
-0.28
-0.295
-0.29
-0.295
-0.28
-0.29
-0.285
-0.29
-0.29
-0.305
-0.29
-0.295
-0.275
-0.28
-0.3
-0.31
-0.305
-0.3
-0.3
-0.295
-0.31
-0.315
-0.3
-0.275
-0.27
-0.25
-0.255
-0.265
-0.25
-0.23
-0.22
-0.225
-0.245
-0.255
-0.25
-0.25
-0.235
-0.26
-0.265
-0.28
-0.29
-0.28
-0.285
-0.305
-0.32
-0.32
-0.325
-0.32
-0.31
-0.285
-0.29
-0.315
-0.34
-0.345
-0.31
-0.31
-0.325
-0.34
-0.33
-0.33
-0.31
-0.305
-0.32
-0.33
-0.335
-0.335
-0.335
-0.33
-0.37
-0.39
-0.395
-0.375
-0.325
-0.25
-0.18
-0.09
0
0.135
0.23
0.335
0.425
0.515
0.605
0.625
0.565
0.46
0.33
0.11
-0.175
-0.41
-0.545
-0.63
-0.65
-0.63
-0.57
-0.52
-0.48
-0.485
-0.48
-0.46
-0.44
-0.44
-0.45
-0.465
-0.48
-0.49
-0.47
-0.445
-0.42
-0.405
-0.415
-0.415
-0.415
-0.41
-0.4
-0.375
-0.4
-0.4
-0.405
-0.38
-0.375
-0.35
-0.36
-0.375
-0.37
-0.37
-0.365
-0.365
-0.385
-0.4
-0.4
-0.38
-0.38
-0.38
-0.37
-0.365
-0.36
-0.37
-0.355
-0.345
-0.36
-0.36
-0.355
-0.345
-0.33
-0.33
-0.33
-0.335
-0.34
-0.33
-0.335
-0.35
-0.35
-0.36
-0.345
-0.315
-0.29
-0.295
-0.305
-0.31
-0.32
-0.305
-0.3
-0.295
-0.295
-0.295
-0.295
-0.295
-0.29
-0.295
-0.295
-0.295
-0.27
-0.27
-0.26
-0.26
-0.28
-0.28
-0.265
-0.245
-0.23
-0.23
-0.235
-0.24
-0.24
-0.245
-0.24
-0.235
-0.24
-0.25
-0.25
-0.235
-0.24
-0.245
-0.255
-0.265
-0.28
-0.27
-0.27
-0.245
-0.26
-0.275
-0.29
-0.285
-0.285
-0.29
-0.3
-0.295
-0.275
-0.26
-0.26
-0.26
-0.275
-0.29
-0.285
-0.28
-0.29
-0.29
-0.31
-0.335
-0.325
-0.32
-0.32
-0.33
-0.335
-0.35
-0.34
-0.335
-0.33
-0.325
-0.325
-0.33
-0.335
-0.33
-0.34
-0.35
-0.345
-0.355
-0.345
-0.335
-0.335
-0.33
-0.345
-0.35
-0.35
-0.34
-0.325
-0.325
-0.33
-0.33
-0.31
-0.305
-0.31
-0.3
-0.295
-0.29
-0.28
-0.265
-0.255
-0.25
-0.245
-0.24
-0.235
-0.235
-0.24
-0.26
-0.275
-0.295
-0.29
-0.295
-0.29
-0.28
-0.285
-0.29
-0.305
-0.31
-0.305
-0.3
-0.31
-0.315
-0.305
-0.295
-0.275
-0.285
-0.295
-0.31
-0.315
-0.34
-0.345
-0.345
-0.335
-0.34
-0.325
-0.315
-0.305
-0.32
-0.33
-0.345
-0.335
-0.3
-0.295
-0.285
-0.29
-0.305
-0.295
-0.31
-0.33
-0.35
-0.35
-0.315
-0.25
-0.15
-0.04
0.08
0.195
0.285
0.385
0.495
0.625
0.725
0.79
0.74
0.63
0.525
0.335
0.025
-0.29
-0.51
-0.595
-0.605
-0.57
-0.505
-0.46
-0.465
-0.44
-0.415
-0.4
-0.395
-0.41
-0.435
-0.445
-0.445
-0.44
-0.45
-0.445
-0.445
-0.41
-0.375
-0.365
-0.385
-0.4
-0.43
-0.415
-0.4
-0.39
-0.395
-0.4
-0.405
-0.39
-0.38
-0.38
-0.375
-0.38
-0.395
-0.385
-0.37
-0.375
-0.375
-0.39
-0.385
-0.365
-0.35
-0.335
-0.34
-0.35
-0.335
-0.315
-0.3
-0.27
-0.265
-0.29
-0.305
-0.29
-0.28
-0.26
-0.265
-0.28
-0.265
-0.25
-0.23
-0.225
-0.24
-0.255
-0.245
-0.23
-0.21
-0.21
-0.22
-0.22
-0.225
-0.21
-0.175
-0.14
-0.135
-0.14
-0.135
-0.13
-0.135
-0.14
-0.135
-0.135
-0.155
-0.165
-0.165
-0.165
-0.175
-0.18
-0.195
-0.2
-0.2
-0.205
-0.2
-0.225
-0.22
-0.225
-0.235
-0.24
-0.24
-0.25
-0.255
-0.24
-0.24
-0.245
-0.255
-0.27
-0.285
-0.295
-0.295
-0.29
-0.29
-0.29
-0.305
-0.3
-0.3
-0.285
-0.3
-0.295
-0.305
-0.315
-0.305
-0.31
-0.32
-0.33
-0.34
-0.335
-0.33
-0.335
-0.345
-0.35
-0.36
-0.365
-0.365
-0.355
-0.37
-0.365
-0.39
-0.385
-0.375
-0.365
-0.365
-0.355
-0.355
-0.355
-0.355
-0.35
-0.345
-0.34
-0.345
-0.335
-0.33
-0.34
-0.35
-0.365
-0.375
-0.385
-0.39
-0.38
-0.38
-0.375
-0.375
-0.375
-0.37
-0.37
-0.365
-0.375
-0.385
-0.365
-0.355
-0.34
-0.34
-0.325
-0.31
-0.295
-0.3
-0.3
-0.33
-0.35
-0.385
-0.395
-0.39
-0.39
-0.39
-0.42
-0.42
-0.4
-0.38
-0.375
-0.375
-0.385
-0.38
-0.375
-0.365
-0.35
-0.35
-0.35
-0.365
-0.36
-0.36
-0.375
-0.385
-0.405
-0.415
-0.42
-0.38
-0.325
-0.255
-0.205
-0.125
-0.015
0.09
0.195
0.29
0.39
0.5
0.615
0.665
0.645
0.54
0.425
0.32
0.175
-0.055
-0.295
-0.465
-0.585
-0.64
-0.62
-0.58
-0.52
-0.49
-0.485
-0.475
-0.445
-0.425
-0.415
-0.435
-0.455
-0.46
-0.47
-0.49
-0.47
-0.455
-0.445
-0.43
-0.43
-0.44
-0.425
-0.425
-0.425
-0.425
-0.415
-0.415
-0.41
-0.4
-0.41
-0.41
-0.405
-0.39
-0.385
-0.365
-0.365
-0.375
-0.38
-0.39
-0.37
-0.365
-0.37
-0.385
-0.38
-0.375
-0.365
-0.365
-0.365
-0.36
-0.33
-0.335
-0.315
-0.305
-0.3
-0.3
-0.285
-0.26
-0.25
-0.245
-0.245
-0.245
-0.23
-0.21
-0.2
-0.195
-0.205
-0.22
-0.2
-0.18
-0.135
-0.135
-0.125
-0.14
-0.165
-0.17
-0.185
-0.155
-0.135
-0.16
-0.19
-0.215
-0.235
-0.23
-0.23
-0.245
-0.24
-0.245
-0.245
-0.245
-0.24
-0.26
-0.255
-0.25
-0.255
-0.265
-0.285
-0.295
-0.28
-0.275
-0.255
-0.25
-0.265
-0.285
-0.29
-0.285
-0.28
-0.29
-0.3
-0.305
-0.305
-0.295
-0.285
-0.28
-0.285
-0.31
-0.325
-0.315
-0.295
-0.295
-0.31
-0.33
-0.34
-0.34
-0.345
-0.355
-0.355
-0.36
-0.355
-0.335
-0.325
-0.32
-0.315
-0.315
-0.31
-0.3
-0.29
-0.3
-0.31
-0.315
-0.295
-0.29
-0.265
-0.28
-0.28
-0.29
-0.295
-0.305
-0.3
-0.32
-0.315
-0.32
-0.305
-0.29
-0.28
-0.28
-0.28
-0.295
-0.29
-0.29
-0.28
-0.28
-0.285
-0.275
-0.25
-0.235
-0.23
-0.235
-0.255
-0.275
-0.29
-0.295
-0.29
-0.275
-0.275
-0.295
-0.3
-0.3
-0.295
-0.275
-0.265
-0.275
-0.26
-0.255
-0.27
-0.25
-0.255
-0.265
-0.265
-0.26
-0.265
-0.26
-0.275
-0.29
-0.285
-0.235
-0.155
-0.065
0.015
0.095
0.195
0.295
0.405
0.515
0.63
0.745
0.825
0.87
0.845
0.745
0.615
0.41
0.08
-0.23
-0.425
-0.535
-0.585
-0.615
-0.56
-0.49
-0.425
-0.405
-0.405
-0.405
-0.38
-0.36
-0.34
-0.355
-0.39
-0.405
-0.405
-0.4
-0.39
-0.385
-0.375
-0.365
-0.34
-0.33
-0.34
-0.345
-0.34
-0.345
-0.335
-0.32
-0.31
-0.31
-0.305
-0.33
-0.315
-0.3
-0.28
-0.285
-0.295
-0.29
-0.29
-0.275
-0.27
-0.265
-0.275
-0.28
-0.275
-0.275
-0.265
-0.27
-0.265
-0.265
-0.25
-0.235
-0.205
-0.19
-0.19
-0.2
-0.21
-0.19
-0.15
-0.145
-0.145
-0.16
-0.15
-0.135
-0.11
-0.12
-0.125
-0.12
-0.12
-0.115
-0.1
-0.1
-0.095
-0.1
-0.1
-0.09
-0.065
-0.06
-0.05
-0.055
-0.04
-0.01
0.01
0
-0.01
-0.005
-0.015
-0.01
-0.02
-0.02
-0.025
-0.045
-0.065
-0.065
-0.075
-0.095
-0.1
-0.085
-0.06
-0.035
-0.045
-0.05
-0.055
-0.06
-0.06
-0.05
-0.05
-0.05
-0.06
-0.08
-0.08
-0.075
-0.06
-0.075
-0.085
-0.095
-0.09
-0.09
-0.095
-0.09
-0.1
-0.115
-0.11
-0.095
-0.095
-0.09
-0.12
-0.145
-0.145
-0.14
-0.13
-0.125
-0.13
-0.145
-0.15
-0.15
-0.155
-0.155
-0.16
-0.16
-0.165
-0.155
-0.15
-0.155
-0.16
-0.185
-0.18
-0.18
-0.17
-0.135
-0.13
-0.11
-0.1
-0.095
-0.085
-0.105
-0.115
-0.125
-0.13
-0.145
-0.14
-0.16
-0.175
-0.19
-0.195
-0.175
-0.165
-0.15
-0.165
-0.17
-0.17
-0.145
-0.13
-0.135
-0.145
-0.16
-0.15
-0.14
-0.115
-0.12
-0.135
-0.145
-0.15
-0.145
-0.14
-0.14
-0.15
-0.17
-0.165
-0.155
-0.14
-0.14
-0.155
-0.155
-0.155
-0.15
-0.125
-0.13
-0.135
-0.145
-0.155
-0.15
-0.14
-0.145
-0.17
-0.19
-0.2
-0.175
-0.13
-0.045
0.03
0.085
0.195
0.31
0.41
0.505
0.595
0.715
0.84
0.965
1.075
1.125
1.085
0.98
0.835
0.605
0.24
-0.08
-0.295
-0.385
-0.4
-0.39
-0.355
-0.32
-0.28
-0.255
-0.215
-0.21
-0.205
-0.21
-0.235
-0.255
-0.26
-0.275
-0.275
-0.265
-0.245
-0.235
-0.23
-0.19
-0.185
-0.185
-0.2
-0.21
-0.195
-0.21
-0.195
-0.195
-0.195
-0.21
-0.21
-0.21
-0.21
-0.19
-0.2
-0.205
-0.2
-0.2
-0.195
-0.195
-0.19
-0.205
-0.18
-0.175
-0.175
-0.175
-0.165
-0.17
-0.165
-0.17
-0.155
-0.15
-0.165
-0.17
-0.155
-0.14
-0.14
-0.125
-0.14
-0.15
-0.135
-0.115
-0.09
-0.085
-0.085
-0.095
-0.095
-0.07
-0.045
-0.035
-0.04
-0.04
-0.025
-0.005
0.02
0.025
0.03
0.01
0.005
0.02
0.015
0.015
0.03
0.035
0.045
0.04
0.055
0.05
0.045
0.025
0.03
0.035
0.045
0.045
0.025
0
0.005
0.005
0.005
0.005
-0.015
-0.025
-0.025
-0.025
-0.02
-0.03
-0.055
-0.06
-0.06
-0.06
-0.045
-0.045
-0.035
-0.045
-0.055
-0.05
-0.055
-0.06
-0.06
-0.07
-0.07
-0.08
-0.085
-0.08
-0.1
-0.11
-0.115
-0.135
-0.15
-0.17
-0.145
-0.15
-0.13
-0.12
-0.105
-0.1
-0.12
-0.13
-0.135
-0.13
-0.125
-0.135
-0.125
-0.125
-0.12
-0.115
-0.12
-0.12
-0.13
-0.145
-0.135
-0.12
-0.125
-0.115
-0.11
-0.115
-0.125
-0.125
-0.14
-0.14
-0.155
-0.18
-0.175
-0.165
-0.155
-0.145
-0.125
-0.14
-0.135
-0.13
-0.13
-0.155
-0.155
-0.18
-0.18
-0.185
-0.18
-0.2
-0.21
-0.21
-0.215
-0.195
-0.21
-0.205
-0.21
-0.215
-0.2
-0.185
-0.195
-0.185
-0.2
-0.195
-0.185
-0.165
-0.155
-0.155
-0.155
-0.165
-0.15
-0.145
-0.135
-0.145
-0.145
-0.15
-0.15
-0.13
-0.135
-0.165
-0.2
-0.23
-0.22
-0.175
-0.095
-0.02
0.04
0.095
0.185
0.275
0.37
0.455
0.545
0.655
0.77
0.875
0.96
0.955
0.9
0.81
0.725
0.62
0.465
0.22
-0.02
-0.195
-0.32
-0.38
-0.4
-0.405
-0.39
-0.355
-0.315
-0.275
-0.255
-0.25
-0.25
-0.25
-0.245
-0.26
-0.265
-0.3
-0.305
-0.32
-0.305
-0.29
-0.27
-0.26
-0.27
-0.29
-0.275
-0.26
-0.255
-0.25
-0.245
-0.275
-0.255
-0.255
-0.26
-0.26
-0.245
-0.255
-0.255
-0.24
-0.23
-0.215
-0.215
-0.225
-0.22
-0.22
-0.215
-0.195
-0.175
-0.175
-0.185
-0.215
-0.215
-0.225
-0.23
-0.225
-0.19
-0.175
-0.17
-0.17
-0.185
-0.18
-0.155
-0.145
-0.14
-0.12
-0.125
-0.115
-0.105
-0.095
-0.07
-0.08
-0.075
-0.075
-0.05
-0.03
-0.025
-0.03
-0.03
-0.05
-0.025
-0.025
-0.015
0.015
0.015
0.015
0.005
0.025
0.06
0.075
0.065
0.03
0.03
0.055
0.05
0.055
0.045
0.015
-0.005
-0.01
-0.015
-0.015
-0.03
-0.05
-0.05
-0.035
-0.03
-0.04
-0.055
-0.075
-0.095
-0.09
-0.07
-0.07
-0.09
-0.105
-0.105
-0.095
-0.095
-0.105
-0.115
-0.125
-0.125
-0.12
-0.115
-0.115
-0.13
-0.17
-0.17
-0.16
-0.14
-0.135
-0.155
-0.165
-0.17
-0.165
-0.155
-0.135
-0.15
-0.19
-0.2
-0.21
-0.18
-0.165
-0.185
-0.205
-0.22
-0.235
-0.23
-0.215
-0.21
-0.2
-0.19
-0.185
-0.185
-0.2
-0.2
-0.215
-0.21
-0.215
-0.205
-0.205
-0.215
-0.23
-0.215
-0.2
-0.185
-0.195
-0.2
-0.19
-0.18
-0.175
-0.145
-0.14
-0.135
-0.14
-0.13
-0.12
-0.115
-0.105
-0.11
-0.11
-0.09
-0.085
-0.095
-0.12
-0.14
-0.15
-0.155
-0.14
-0.155
-0.175
-0.19
-0.185
-0.155
-0.145
-0.15
-0.155
-0.135
-0.125
-0.115
-0.115
-0.12
-0.105
-0.095
-0.1
-0.11
-0.12
-0.14
-0.15
-0.175
-0.205
-0.19
-0.165
-0.145
-0.15
-0.18
-0.165
-0.145
-0.12
-0.1
-0.115
-0.135
-0.145
-0.135
-0.115
-0.105
-0.1
-0.105
-0.135
-0.155
-0.17
-0.165
-0.155
-0.12
-0.085
-0.025
0.055
0.16
0.265
0.355
0.405
0.475
0.595
0.72
0.845
0.945
1.005
0.98
0.925
0.82
0.685
0.46
0.14
-0.145
-0.32
-0.415
-0.43
-0.425
-0.39
-0.35
-0.295
-0.27
-0.255
-0.245
-0.225
-0.21
-0.215
-0.22
-0.23
-0.24
-0.265
-0.28
-0.275
-0.27
-0.22
-0.205
-0.215
-0.215
-0.205
-0.195
-0.2
-0.2
-0.205
-0.205
-0.205
-0.205
-0.21
-0.22
-0.215
-0.19
-0.18
-0.17
-0.17
-0.165
-0.165
-0.17
-0.16
-0.18
-0.175
-0.17
-0.155
-0.145
-0.135
-0.15
-0.165
-0.175
-0.185
-0.16
-0.15
-0.135
-0.14
-0.135
-0.15
-0.145
-0.135
-0.11
-0.105
-0.115
-0.09
-0.08
-0.04
-0.015
-0.025
-0.04
-0.06
-0.05
-0.035
-0.015
0
0
-0.015
0
0.02
0.035
0.035
0.015
0
-0.015
0.005
0.02
0.02
0.005
0.015
0.035
0.05
0.065
0.09
0.095
0.085
0.085
0.09
0.085
0.075
0.06
0.065
0.07
0.065
0.04
0.015
0.01
0.005
0.025
0.055
0.065
0.035
-0.03
-0.07
-0.065
-0.05
-0.015
-0.01
-0.005
-0.03
-0.025
-0.01
-0.005
0
-0.02
-0.045
-0.045
-0.06
-0.045
-0.05
-0.065
-0.075
-0.075
-0.05
-0.025
-0.02
-0.04
-0.08
-0.065
-0.055
-0.05
-0.04
-0.06
-0.08
-0.095
-0.085
-0.075
-0.07
-0.075
-0.09
-0.09
-0.09
-0.08
-0.08
-0.075
-0.095
-0.105
-0.12
-0.125
-0.125
-0.13
-0.135
-0.125
-0.13
-0.115
-0.09
-0.065
-0.08
-0.075
-0.045
-0.04
-0.055
-0.065
-0.065
-0.045
-0.045
-0.06
-0.065
-0.075
-0.085
-0.095
-0.09
-0.09
-0.095
-0.1
-0.095
-0.1
-0.095
-0.095
-0.095
-0.09
-0.09
-0.075
-0.06
-0.055
-0.05
-0.055
-0.06
-0.065
-0.07
-0.06
-0.075
-0.085
-0.1
-0.095
-0.095
-0.11
-0.11
-0.12
-0.135
-0.125
-0.11
-0.08
-0.06
-0.045
-0.06
-0.065
-0.07
-0.04
-0.02
-0.03
-0.055
-0.07
-0.035
-0.035
-0.045
-0.075
-0.085
-0.055
0.015
0.095
0.175
0.27
0.37
0.475
0.6
0.77
0.925
1.065
1.19
1.29
1.3
1.24
1.1
0.82
0.375
-0.02
-0.23
-0.305
-0.32
-0.33
-0.325
-0.26
-0.18
-0.125
-0.13
-0.125
-0.135
-0.155
-0.165
-0.175
-0.185
-0.2
-0.225
-0.22
-0.185
-0.14
-0.14
-0.115
-0.125
-0.15
-0.17
-0.195
-0.19
-0.175
-0.17
-0.155
-0.14
-0.125
-0.125
-0.145
-0.155
-0.15
-0.135
-0.12
-0.12
-0.11
-0.125
-0.11
-0.11
-0.065
-0.055
-0.06
-0.085
-0.08
-0.08
-0.095
-0.1
-0.105
-0.105
-0.075
-0.045
-0.035
-0.02
-0.01
0
0.01
0.005
0.005
0.025
0.04
0.065
0.085
0.09
0.095
0.095
0.095
0.1
0.11
0.085
0.07
0.08
0.11
0.145
0.165
0.19
0.19
0.175
0.15
0.13
0.115
0.115
0.12
0.105
0.12
0.13
0.13
0.13
0.1
0.085
0.085
0.08
0.06
0.055
0.05
0.05
0.05
0.04
0.045
0.06
0.055
0.035
-0.01
-0.015
0
0.03
0.04
0.035
0.01
-0.03
-0.02
-0.005
0.015
0.01
0
-0.04
-0.04
-0.04
-0.03
-0.02
-0.01
0
-0.005
0.005
0.02
0.01
-0.005
-0.02
-0.03
-0.025
-0.02
0.01
0.005
0
-0.005
-0.01
-0.015
-0.03
-0.005
0.02
0.01
0.01
0.025
0.02
0.055
0.07
0.075
0.085
0.09
0.09
0.07
0.035
0
-0.01
0.01
0.03
0.035
0.02
0.005
-0.02
-0.025
-0.035
-0.025
-0.03
-0.055
-0.035
-0.01
0.01
0.015
-0.005
0
0.005
0.005
0.01
0.005
-0.015
-0.02
-0.035
-0.03
-0.01
-0.02
-0.035
-0.04
-0.06
-0.02
-0.01
-0.015
-0.07
-0.085
-0.085
-0.055
-0.035
-0.05
-0.07
-0.06
-0.04
-0.025
-0.01
-0.03
-0.07
-0.09
-0.07
0
0.075
0.165
0.235
0.325
0.415
0.535
0.65
0.77
0.92
1.035
1.16
1.245
1.265
1.22
1.08
0.87
0.52
0.17
-0.055
-0.165
-0.225
-0.26
-0.255
-0.2
-0.145
-0.08
-0.05
-0.07
-0.08
-0.1
-0.12
-0.145
-0.15
-0.15
-0.16
-0.165
-0.16
-0.14
-0.125
-0.105
-0.095
-0.085
-0.085
-0.09
-0.085
-0.08
-0.09
-0.085
-0.1
-0.12
-0.145
-0.125
-0.09
-0.085
-0.12
-0.16
-0.17
-0.15
-0.125
-0.095
-0.065
-0.05
-0.06
-0.085
-0.085
-0.08
-0.075
-0.065
-0.06
-0.075
-0.085
-0.115
-0.115
-0.085
-0.05
-0.04
-0.05
-0.07
-0.07
-0.045
-0.035
-0.045
-0.035
-0.015
-0.01
0.005
-0.01
-0.005
0.005
0.015
0.02
0.035
0.07
0.11
0.12
0.12
0.095
0.05
0.015
-0.005
0.025
0.075
0.085
0.075
0.07
0.075
0.085
0.075
0.035
0.015
0
-0.01
0.005
0.01
0.01
-0.005
-0.02
-0.035
-0.06
-0.065
-0.055
-0.055
-0.06
-0.065
-0.08
-0.085
-0.075
-0.065
-0.06
-0.095
-0.12
-0.115
-0.09
-0.075
-0.095
-0.085
-0.085
-0.095
-0.1
-0.12
-0.15
-0.145
-0.13
-0.085
-0.07
-0.09
-0.145
-0.175
-0.17
-0.135
-0.105
-0.085
-0.09
-0.085
-0.075
-0.075
-0.07
-0.065
-0.075
-0.045
-0.045
-0.025
-0.02
-0.03
-0.04
-0.075
-0.07
-0.08
-0.08
-0.075
-0.08
-0.085
-0.065
-0.045
-0.035
-0.035
-0.055
-0.085
-0.1
-0.08
-0.07
-0.08
-0.085
-0.105
-0.12
-0.125
-0.13
-0.12
-0.115
-0.115
-0.115
-0.1
-0.095
-0.1
-0.115
-0.125
-0.105
-0.1
-0.09
-0.105
-0.12
-0.12
-0.12
-0.105
-0.105
-0.1
-0.11
-0.11
-0.1
-0.115
-0.13
-0.145
-0.14
-0.105
-0.08
-0.05
-0.015
0.02
0.08
0.205
0.345
0.465
0.575
0.675
0.81
0.93
1.03
1.075
1.035
0.935
0.815
0.645
0.4
0.105
-0.11
-0.245
-0.33
-0.35
-0.335
-0.29
-0.255
-0.25
-0.245
-0.22
-0.19
-0.205
-0.24
-0.305
-0.32
-0.31
-0.28
-0.275
-0.285
-0.285
-0.295
-0.26
-0.245
-0.24
-0.24
-0.25
-0.25
-0.245
-0.22
-0.205
-0.205
-0.205
-0.22
-0.225
-0.21
-0.19
-0.2
-0.215
-0.2
-0.18
-0.18
-0.185
-0.195
-0.195
-0.19
-0.18
-0.17
-0.185
-0.185
-0.195
-0.175
-0.155
-0.135
-0.115
-0.095
-0.085
-0.12
-0.155
-0.165
-0.175
-0.145
-0.11
-0.105
-0.095
-0.1
-0.07
-0.05
-0.065
-0.06
-0.045
-0.03
-0.02
-0.02
-0.04
-0.055
-0.04
0
0.015
0.01
0.025
0.03
0.045
0.06
0.06
0.05
0.035
0.015
0.01
0.005
0.005
0.015
0.015
0.015
-0.005
-0.015
-0.02
-0.025
-0.045
-0.065
-0.065
-0.065
-0.05
-0.045
-0.065
-0.065
-0.07
-0.06
-0.04
-0.035
-0.03
-0.045
-0.05
-0.09
-0.105
-0.115
-0.11
-0.115
-0.13
-0.155
-0.175
-0.21
-0.215
-0.2
-0.175
-0.15
-0.14
-0.14
-0.15
-0.17
-0.165
-0.16
-0.165
-0.165
-0.185
-0.2
-0.205
-0.2
-0.195
-0.2
-0.2
-0.21
-0.21
-0.22
-0.225
-0.245
-0.255
-0.255
-0.25
-0.23
-0.22
-0.23
-0.235
-0.245
-0.25
-0.24
-0.24
-0.225
-0.235
-0.22
-0.23
-0.225
-0.215
-0.2
-0.21
-0.235
-0.275
-0.285
-0.275
-0.25
-0.25
-0.265
-0.26
-0.24
-0.24
-0.23
-0.23
-0.235
-0.22
-0.2
-0.18
-0.17
-0.155
-0.165
-0.175
-0.18
-0.17
-0.165
-0.15
-0.155
-0.15
-0.14
-0.145
-0.145
-0.15
-0.16
-0.15
-0.165
-0.17
-0.185
-0.18
-0.19
-0.195
-0.18
-0.16
-0.17
-0.175
-0.205
-0.195
-0.185
-0.17
-0.17
-0.18
-0.185
-0.175
-0.155
-0.155
-0.15
-0.17
-0.19
-0.2
-0.19
-0.19
-0.19
-0.205
-0.21
-0.2
-0.17
-0.15
-0.145
-0.15
-0.19
-0.215
-0.23
-0.235
-0.21
-0.205
-0.235
-0.245
-0.225
-0.2
-0.195
-0.215
-0.23
-0.24
-0.25
-0.24
-0.235
-0.19
-0.13
-0.05
0.04
0.13
0.205
0.3
0.39
0.51
0.635
0.755
0.845
0.915
0.92
0.84
0.705
0.52
0.25
-0.065
-0.3
-0.43
-0.495
-0.52
-0.495
-0.45
-0.41
-0.385
-0.36
-0.33
-0.3
-0.28
-0.3
-0.33
-0.335
-0.34
-0.35
-0.34
-0.345
-0.345
-0.335
-0.325
-0.315
-0.31
-0.325
-0.325
-0.305
-0.29
-0.3
-0.31
-0.31
-0.29
-0.295
-0.295
-0.305
-0.31
-0.305
-0.31
-0.27
-0.245
-0.24
-0.265
-0.295
-0.305
-0.3
-0.285
-0.28
-0.285
-0.275
-0.255
-0.21
-0.19
-0.195
-0.22
-0.25
-0.25
-0.22
-0.19
-0.175
-0.175
-0.18
-0.18
-0.19
-0.175
-0.18
-0.18
-0.175
-0.165
-0.155
-0.14
-0.15
-0.15
-0.165
-0.16
-0.145
-0.125
-0.13
-0.125
-0.13
-0.11
-0.075
-0.065
-0.095
-0.095
-0.09
-0.08
-0.085
-0.095
-0.115
-0.13
-0.135
-0.12
-0.105
-0.115
-0.125
-0.13
-0.12
-0.11
-0.1
-0.105
-0.14
-0.19
-0.215
-0.215
-0.2
-0.185
-0.185
-0.195
-0.21
-0.215
-0.225
-0.205
-0.205
-0.195
-0.205
-0.22
-0.23
-0.23
-0.215
-0.205
-0.225
-0.205
-0.2
-0.19
-0.195
-0.22
-0.26
-0.27
-0.255
-0.225
-0.235
-0.235
-0.26
-0.27
-0.27
-0.25
-0.23
-0.235
-0.245
-0.245
-0.235
-0.23
-0.235
-0.245
-0.25
-0.25
-0.23
-0.215
-0.21
-0.21
-0.225
-0.21
-0.19
-0.175
-0.185
-0.18
-0.18
-0.175
-0.145
-0.12
-0.1
-0.105
-0.125
-0.1
-0.09
-0.05
-0.05
-0.035
-0.04
-0.015
0.01
0.07
0.12
0.155
0.16
0.205
0.265
0.29
0.28
0.26
0.215
0.07
-0.2
-0.6
-1.07
-1.45
-1.72
-1.865
-1.955
-2
-2.025
-2.015
-1.98
-1.89
-1.75
-1.615
-1.545
-1.48
-1.405
-1.325
-1.25
-1.17
-1.055
-0.97
-0.895
-0.835
-0.79
-0.725
-0.685
-0.64
-0.615
-0.585
-0.54
-0.49
-0.465
-0.45
-0.425
-0.37
-0.295
-0.215
-0.15
-0.1
-0.07
-0.025
0.015
0.065
0.105
0.125
0.14
0.15
0.185
0.21
0.235
0.24
0.255
0.27
0.29
0.325
0.34
0.35
0.355
0.375
0.415
0.455
0.48
0.49
0.5
0.51
0.535
0.545
0.555
0.575
0.6
0.62
0.645
0.66
0.685
0.705
0.71
0.725
0.72
0.73
0.735
0.725
0.73
0.75
0.75
0.77
0.73
0.73
0.705
0.695
0.67
0.67
0.66
0.66
0.625
0.61
0.605
0.575
0.555
0.525
0.49
0.46
0.445
0.43
0.395
0.36
0.335
0.29
0.265
0.245
0.225
0.205
0.165
0.145
0.125
0.1
0.07
0.06
0.055
0.055
0.035
0.025
0.025
0.005
-0.02
-0.03
-0.05
-0.035
-0.04
-0.05
-0.065
-0.065
-0.075
-0.075
-0.11
-0.105
-0.115
-0.11
-0.085
-0.075
-0.09
-0.105
-0.095
-0.085
-0.065
-0.055
-0.08
-0.1
-0.1
-0.095
-0.09
-0.08
-0.08
-0.095
-0.105
-0.105
-0.105
-0.105
-0.105
-0.115
-0.135
-0.13
-0.13
-0.12
-0.125
-0.14
-0.145
-0.135
-0.135
-0.13
-0.13
-0.145
-0.16
-0.15
-0.135
-0.115
-0.115
-0.13
-0.155
-0.16
-0.17
-0.155
-0.155
-0.175
-0.205
-0.205
-0.2
-0.18
-0.155
-0.155
-0.17
-0.17
-0.165
-0.155
-0.155
-0.155
-0.15
-0.14
-0.14
-0.125
-0.135
-0.13
-0.13
-0.125
-0.115
-0.105
-0.11
-0.125
-0.13
-0.11
-0.105
-0.12
-0.15
-0.175
-0.175
-0.16
-0.17
-0.175
-0.18
-0.185
-0.19
-0.195
-0.185
-0.175
-0.18
-0.185
-0.195
-0.18
-0.175
-0.185
-0.185
-0.195
-0.175
-0.17
-0.165
-0.16
-0.195
-0.225
-0.225
-0.235
-0.225
-0.21
-0.205
-0.195
-0.21
-0.205
-0.205
-0.195
-0.21
-0.205
-0.22
-0.22
-0.22
-0.205
-0.205
-0.23
-0.25
-0.27
-0.255
-0.225
-0.16
-0.09
-0.015
0.09
0.2
0.325
0.43
0.55
0.675
0.825
0.975
1.07
1.085
1.015
0.865
0.605
0.205
-0.175
-0.38
-0.44
-0.445
-0.39
-0.32
-0.275
-0.26
-0.28
-0.3
-0.305
-0.305
-0.31
-0.345
-0.345
-0.35
-0.37
-0.36
-0.335
-0.305
-0.305
-0.305
-0.305
-0.31
-0.3
-0.31
-0.315
-0.32
-0.31
-0.3
-0.3
-0.305
-0.31
-0.315
-0.31
-0.3
-0.29
-0.295
-0.3
-0.3
-0.3
-0.28
-0.26
-0.265
-0.275
-0.29
-0.28
-0.26
-0.24
-0.24
-0.25
-0.24
-0.24
-0.245
-0.23
-0.245
-0.25
-0.265
-0.255
-0.23
-0.205
-0.205
-0.19
-0.2
-0.195
-0.185
-0.19
-0.19
-0.175
-0.175
-0.17
-0.16
-0.155
-0.155
-0.145
-0.145
-0.15
-0.135
-0.125
-0.135
-0.14
-0.13
-0.12
-0.115
-0.095
-0.1
-0.11
-0.12
-0.12
-0.115
-0.105
-0.11
-0.125
-0.135
-0.15
-0.155
-0.155
-0.16
-0.15
-0.145
-0.14
-0.13
-0.13
-0.13
-0.125
-0.125
-0.12
-0.125
-0.12
-0.11
-0.095
-0.095
-0.085
-0.095
-0.065
-0.065
-0.085
-0.105
-0.13
-0.145
-0.14
-0.155
-0.165
-0.18
-0.195
-0.195
-0.16
-0.155
-0.16
-0.185
-0.18
-0.195
-0.185
-0.19
-0.19
-0.185
-0.185
-0.155
-0.135
-0.12
-0.11
-0.11
-0.095
-0.08
-0.05
-0.045
-0.06
-0.065
-0.1
-0.125
-0.12
-0.075
-0.08
-0.145
-0.22
-0.335
-0.54
-0.865
-1.235
-1.585
-1.89
-2.085
-2.155
-2.185
-2.2
-2.2
-2.14
-2.035
-1.92
-1.785
-1.685
-1.6
-1.515
-1.39
-1.26
-1.135
-1.04
-0.975
-0.925
-0.89
-0.825
-0.775
-0.745
-0.7
-0.665
-0.615
-0.55
-0.505
-0.46
-0.385
-0.32
-0.25
-0.195
-0.105
-0.05
0
0.055
0.105
0.125
0.14
0.175
0.185
0.19
0.2
0.235
0.255
0.28
0.295
0.295
0.305
0.345
0.37
0.38
0.39
0.4
0.405
0.43
0.435
0.445
0.45
0.455
0.49
0.525
0.55
0.57
0.575
0.58
0.59
0.62
0.635
0.64
0.64
0.625
0.64
0.645
0.645
0.64
0.63
0.615
0.615
0.61
0.605
0.585
0.565
0.54
0.52
0.53
0.52
0.515
0.48
0.44
0.43
0.405
0.375
0.345
0.315
0.285
0.26
0.25
0.215
0.195
0.155
0.115
0.085
0.07
0.075
0.065
0.045
0.015
0
-0.03
-0.04
-0.055
-0.08
-0.09
-0.095
-0.095
-0.105
-0.12
-0.135
-0.165
-0.17
-0.175
-0.175
-0.185
-0.21
-0.225
-0.215
-0.19
-0.18
-0.18
-0.195
-0.205
-0.22
-0.195
-0.205
-0.215
-0.21
-0.205
-0.19
-0.195
-0.19
-0.205
-0.235
-0.25
-0.25
-0.24
-0.24
-0.235
-0.245
-0.24
-0.23
-0.23
-0.235
-0.23
-0.24
-0.24
-0.245
-0.25
-0.26
-0.265
-0.275
-0.275
-0.26
-0.26
-0.285
-0.285
-0.315
-0.325
-0.32
-0.31
-0.305
-0.295
-0.295
-0.275
-0.265
-0.245
-0.26
-0.28
-0.29
-0.29
-0.29
-0.265
-0.275
-0.295
-0.32
-0.31
-0.3
-0.29
-0.3
-0.305
-0.295
-0.3
-0.295
-0.28
-0.29
-0.29
-0.295
-0.3
-0.285
-0.27
-0.265
-0.27
-0.295
-0.29
-0.285
-0.27
-0.275
-0.29
-0.345
-0.32
-0.29
-0.28
-0.285
-0.305
-0.315
-0.31
-0.305
-0.29
-0.29
-0.285
-0.3
-0.31
-0.3
-0.275
-0.27
-0.265
-0.265
-0.285
-0.3
-0.28
-0.27
-0.265
-0.28
-0.29
-0.305
-0.285
-0.285
-0.29
-0.32
-0.34
-0.305
-0.285
-0.275
-0.275
-0.29
-0.31
-0.29
-0.295
-0.295
-0.29
-0.29
-0.295
-0.28
-0.27
-0.265
-0.265
-0.275
-0.295
-0.285
-0.29
-0.29
-0.29
-0.31
-0.305
-0.3
-0.3
-0.29
-0.27
-0.265
-0.28
-0.275
-0.27
-0.275
-0.28
-0.29
-0.285
-0.275
-0.26
-0.25
-0.255
-0.245
-0.23
-0.24
-0.24
-0.255
-0.235
-0.245
-0.25
-0.25
-0.24
-0.24
-0.24
-0.245
-0.255
-0.25
-0.25
-0.255
-0.26
-0.28
-0.285
-0.27
-0.265
-0.295
-0.31
-0.325
-0.32
-0.29
-0.285
-0.29
-0.32
-0.325
-0.33
-0.315
-0.305
-0.31
-0.32
-0.305
-0.265
-0.25
-0.245
-0.26
-0.265
-0.285
-0.3
-0.3
-0.3
-0.305
-0.29
-0.305
-0.31
-0.295
-0.3
-0.305
-0.3
-0.29
-0.305
-0.315
-0.285
-0.29
-0.3
-0.28
-0.29
-0.285
-0.285
-0.3
-0.31
-0.31
-0.315
-0.29
-0.23
-0.175
-0.13
-0.05
0.025
0.125
0.24
0.325
0.41
0.495
0.59
0.71
0.825
0.875
0.84
0.755
0.625
0.455
0.225
-0.07
-0.335
-0.515
-0.61
-0.655
-0.655
-0.615
-0.575
-0.535
-0.51
-0.485
-0.46
-0.44
-0.415
-0.41
-0.435
-0.445
-0.435
-0.44
-0.43
-0.44
-0.45
-0.435
-0.42
-0.395
-0.37
-0.36
-0.375
-0.395
-0.39
-0.37
-0.35
-0.35
-0.365
-0.365
-0.345
-0.34
-0.345
-0.35
-0.34
-0.34
-0.335
-0.355
-0.365
-0.355
-0.345
-0.35
-0.33
-0.33
-0.325
-0.32
-0.33
-0.33
-0.33
-0.32
-0.315
-0.315
-0.305
-0.295
-0.29
-0.275
-0.29
-0.29
-0.3
-0.305
-0.31
-0.305
-0.3
-0.3
-0.3
-0.295
-0.265
-0.26
-0.265
-0.29
-0.27
-0.255
-0.235
-0.23
-0.235
-0.24
-0.24
-0.225
-0.225
-0.225
-0.245
-0.25
-0.245
-0.235
-0.215
-0.215
-0.215
-0.215
-0.225
-0.22
-0.19
-0.175
-0.165
-0.17
-0.175
-0.15
-0.145
-0.15
-0.145
-0.155
-0.165
-0.16
-0.16
-0.175
-0.165
-0.165
-0.15
-0.165
-0.155
-0.155
-0.165
-0.16
-0.16
-0.155
-0.15
-0.155
-0.17
-0.175
-0.185
-0.19
-0.175
-0.19
-0.19
-0.205
-0.225
-0.225
-0.225
-0.245
-0.255
-0.26
-0.245
-0.215
-0.21
-0.21
-0.22
-0.23
-0.23
-0.22
-0.205
-0.21
-0.215
-0.225
-0.205
-0.205
-0.195
-0.155
-0.135
-0.125
-0.11
-0.09
-0.065
-0.04
-0.01
-0.01
-0.01
-0.01
0.015
0.04
0.085
0.105
0.065
0.035
-0.075
-0.315
-0.695
-1.095
-1.46
-1.76
-1.97
-2.08
-2.11
-2.115
-2.115
-2.085
-2.01
-1.925
-1.83
-1.72
-1.615
-1.51
-1.385
-1.245
-1.135
-1.06
-0.995
-0.905
-0.815
-0.755
-0.69
-0.655
-0.615
-0.56
-0.515
-0.46
-0.41
-0.365
-0.32
-0.25
-0.16
-0.095
-0.025
0.005
0.055
0.085
0.13
0.155
0.185
0.215
0.225
0.265
0.28
0.315
0.33
0.35
0.37
0.395
0.425
0.42
0.425
0.425
0.42
0.44
0.46
0.465
0.48
0.5
0.515
0.535
0.56
0.57
0.58
0.6
0.61
0.62
0.65
0.675
0.7
0.695
0.71
0.715
0.74
0.745
0.74
0.735
0.75
0.77
0.77
0.775
0.775
0.755
0.755
0.775
0.78
0.77
0.76
0.74
0.73
0.725
0.725
0.715
0.69
0.67
0.65
0.62
0.615
0.595
0.575
0.55
0.52
0.48
0.475
0.43
0.405
0.37
0.37
0.345
0.34
0.31
0.29
0.27
0.25
0.24
0.22
0.21
0.2
0.165
0.155
0.145
0.135
0.125
0.1
0.085
0.065
0.06
0.07
0.07
0.045
0.02
0.005
0.005
-0.005
-0.015
-0.015
-0.03
-0.055
-0.055
-0.03
-0.04
-0.045
-0.035
-0.02
-0.01
-0.005
-0.02
-0.035
-0.03
-0.035
-0.03
-0.025
-0.03
-0.03
-0.04
-0.035
-0.045
-0.05
-0.055
-0.06
-0.065
-0.065
-0.045
-0.03
0.025
0.085
0.13
0.175
0.21
0.26
0.285
0.285
0.3
0.345
0.385
0.46
0.525
0.595
0.65
0.7
0.78
0.87
0.93
0.975
1.03
1.06
1.1
1.16
1.245
1.38
1.5
1.59
1.675
1.705
1.73
1.76
1.78
1.84
1.905
1.975
2.035
2.09
2.085
2.045
1.935
1.75
1.525
1.33
1.12
0.88
0.605
0.335
0.09
-0.125
-0.3
-0.43
-0.485
-0.505
-0.525
-0.565
-0.575
-0.585
-0.6
-0.6
-0.625
-0.64
-0.655
-0.68
-0.695
-0.7
-0.705
-0.73
-0.75
-0.775
-0.775
-0.775
-0.785
-0.795
-0.81
-0.83
-0.85
-0.85
-0.855
-0.85
-0.855
-0.865
-0.865
-0.86
-0.85
-0.86
-0.875
-0.875
-0.875
-0.88
-0.895
-0.925
-0.935
-0.95
-0.955
-0.95
-0.98
-1.01
-1.025
-1.04
-1.025
-1
-0.99
-1.02
-1.035
-1.005
-0.985
-0.98
-0.975
-0.975
-0.965
-0.965
-0.96
-0.96
-0.935
-0.935
-0.925
-0.93
-0.905
-0.865
-0.84
-0.835
-0.825
-0.81
-0.785
-0.77
-0.76
-0.73
-0.68
-0.645
-0.61
-0.585
-0.56
-0.535
-0.52
-0.495
-0.47
-0.445
-0.445
-0.43
-0.41
-0.39
-0.37
-0.34
-0.315
-0.3
-0.31
-0.305
-0.295
-0.275
-0.26
-0.24
-0.245
-0.235
-0.215
-0.205
-0.19
-0.185
-0.185
-0.2
-0.185
-0.175
-0.175
-0.175
-0.185
-0.205
-0.205
-0.205
-0.2
-0.195
-0.21
-0.23
-0.225
-0.215
-0.225
-0.21
-0.215
-0.205
-0.195
-0.205
-0.18
-0.19
-0.195
-0.185
-0.185
-0.175
-0.17
-0.16
-0.16
-0.165
-0.16
-0.155
-0.165
-0.165
-0.165
-0.155
-0.155
-0.145
-0.145
-0.13
-0.11
-0.12
-0.095
-0.095
-0.09
-0.105
-0.1
-0.1
-0.09
-0.085
-0.09
-0.09
-0.095
-0.095
-0.115
-0.105
-0.1
-0.1
-0.1
-0.095
-0.085
-0.075
-0.07
-0.07
-0.08
-0.085
-0.085
-0.06
-0.055
-0.055
-0.05
-0.05
-0.045
-0.045
-0.055
-0.065
-0.065
-0.07
-0.065
-0.055
-0.06
-0.07
-0.09
-0.1
-0.09
-0.09
-0.105
-0.13
-0.13
-0.13
-0.12
-0.12
-0.11
-0.105
-0.105
-0.1
-0.085
-0.07
-0.085
-0.075
-0.09
-0.09
-0.08
-0.065
-0.1
-0.075
-0.095
-0.1
-0.09
-0.085
-0.095
-0.09
-0.1
-0.105
-0.09
-0.085
-0.1
-0.1
-0.12
-0.105
-0.09
-0.07
-0.065
-0.065
-0.075
-0.075
-0.08
-0.075
-0.07
-0.075
-0.075
-0.085
-0.08
-0.07
-0.08
-0.07
-0.075
-0.075
-0.06
-0.045
-0.03
-0.04
-0.05
-0.06
-0.055
-0.04
-0.05
-0.055
-0.075
-0.07
-0.06
-0.055
-0.05
-0.06
-0.075
-0.08
-0.065
-0.06
-0.06
-0.06
-0.05
-0.055
-0.06
-0.06
-0.07
-0.075
-0.07
-0.065
-0.06
-0.075
-0.08
-0.08
-0.08
-0.075
-0.065
-0.065
-0.07
-0.06
-0.08
-0.075
-0.085
-0.085
-0.095
-0.115
-0.125
-0.13
-0.115
-0.105
-0.1
-0.105
-0.12
-0.125
-0.11
-0.085
-0.08
-0.075
-0.06
-0.055
-0.06
-0.08
-0.1
-0.1
-0.125
-0.11
-0.095
-0.1
-0.1
-0.12
-0.145
-0.15
-0.135
-0.115
-0.1
-0.095
-0.11
-0.11
-0.125
-0.12
-0.115
-0.11
-0.105
-0.105
-0.095
-0.09
-0.09
-0.085
-0.11
-0.11
-0.1
-0.105
-0.115
-0.11
-0.11
-0.11
-0.12
-0.12
-0.13
-0.11
-0.115
-0.1
-0.075
-0.055
-0.05
-0.04
-0.035
-0.035
-0.02
-0.03
-0.04
-0.045
-0.035
-0.04
-0.035
-0.03
-0.03
-0.04
-0.045
-0.045
-0.025
-0.04
-0.05
-0.06
-0.075
-0.065
-0.055
-0.055
-0.055
-0.07
-0.07
-0.065
-0.055
-0.055
-0.08
-0.085
-0.08
-0.08
-0.065
-0.07
-0.1
-0.095
-0.075
-0.04
-0.03
-0.015
-0.02
-0.025
-0.035
-0.045
-0.04
-0.025
-0.02
-0.025
-0.055
-0.065
-0.065
-0.045
-0.03
-0.04
-0.055
-0.08
-0.1
-0.085
-0.075
-0.075
-0.075
-0.1
-0.09
-0.095
-0.05
0.025
0.095
0.16
0.23
0.34
0.43
0.53
0.625
0.75
0.875
0.985
1.065
1.08
1.03
0.91
0.745
0.515
0.18
-0.145
-0.37
-0.455
-0.46
-0.415
-0.365
-0.325
-0.315
-0.305
-0.29
-0.25
-0.225
-0.22
-0.24
-0.26
-0.27
-0.275
-0.265
-0.275
-0.27
-0.26
-0.235
-0.195
-0.185
-0.19
-0.2
-0.205
-0.19
-0.16
-0.14
-0.145
-0.16
-0.17
-0.16
-0.165
-0.165
-0.16
-0.15
-0.12
-0.08
-0.07
-0.09
-0.175
-0.22
-0.24
-0.22
-0.175
-0.145
-0.16
-0.16
-0.165
-0.145
-0.13
-0.12
-0.115
-0.125
-0.115
-0.1
-0.08
-0.08
-0.09
-0.08
-0.07
-0.06
-0.035
-0.025
-0.01
-0.01
0
0.01
0.035
0.005
-0.02
-0.025
-0.03
-0.015
-0.01
-0.045
-0.065
-0.08
-0.055
-0.025
0.01
0.03
0.035
0.025
0.025
0.05
0.065
0.06
0.06
0.055
0.075
0.095
0.08
0.04
0.005
-0.025
0
0.02
0.03
0.025
0.015
-0.01
-0.01
-0.005
-0.015
-0.005
0.025
0.025
0.02
0.015
0.03
0.04
0.045
0.01
-0.03
-0.09
-0.135
-0.16
-0.15
-0.145
-0.135
-0.115
-0.115
-0.135
-0.14
-0.15
-0.14
-0.135
-0.13
-0.135
-0.115
-0.1
-0.075
-0.07
-0.09
-0.125
-0.13
-0.135
-0.09
-0.045
-0.065
-0.02
-0.02
-0.02
-0.015
0.035
0.09
0.115
0.12
0.09
0.065
0.05
0.045
0.04
0.07
0.04
-0.035
-0.2
-0.47
-0.86
-1.285
-1.685
-1.965
-2.085
-2.085
-2.1
-2.095
-2.06
-1.97
-1.83
-1.69
-1.58
-1.485
-1.395
-1.295
-1.145
-1
-0.875
-0.77
-0.71
-0.675
-0.62
-0.6
-0.6
-0.615
-0.61
-0.555
-0.475
-0.37
-0.305
-0.22
-0.15
-0.085
-0.03
0.005
0.06
0.115
0.15
0.18
0.215
0.26
0.305
0.34
0.365
0.36
0.38
0.395
0.395
0.37
0.345
0.345
0.395
0.43
0.46
0.45
0.43
0.43
0.47
0.53
0.565
0.59
0.6
0.6
0.585
0.59
0.62
0.64
0.655
0.635
0.635
0.65
0.66
0.675
0.675
0.665
0.67
0.67
0.68
0.685
0.705
0.715
0.745
0.74
0.735
0.72
0.685
0.675
0.635
0.605
0.605
0.615
0.605
0.57
0.525
0.5
0.485
0.485
0.465
0.425
0.405
0.4
0.4
0.41
0.39
0.34
0.28
0.24
0.22
0.195
0.185
0.145
0.115
0.1
0.105
0.12
0.1
0.06
0.02
0.02
0.025
0.035
0.035
0.035
0.025
0.01
-0.005
-0.015
-0.03
-0.05
-0.06
-0.035
-0.035
-0.03
-0.045
-0.05
-0.035
-0.02
0
0.005
0.02
0.045
0.055
0.035
-0.005
-0.045
-0.09
-0.095
-0.115
-0.145
-0.145
-0.15
-0.125
-0.105
-0.08
-0.07
-0.06
-0.07
-0.085
-0.08
-0.055
-0.015
-0.005
-0.03
-0.075
-0.115
-0.1
-0.075
-0.055
-0.06
-0.065
-0.13
-0.2
-0.225
-0.205
-0.155
-0.125
-0.12
-0.125
-0.115
-0.12
-0.12
-0.13
-0.14
-0.135
-0.115
-0.11
-0.115
-0.105
-0.1
-0.07
-0.055
-0.06
-0.065
-0.08
-0.085
-0.095
-0.08
-0.08
-0.09
-0.1
-0.11
-0.11
-0.105
-0.115
-0.105
-0.09
-0.075
-0.08
-0.08
-0.09
-0.08
-0.07
-0.07
-0.04
-0.02
-0.04
-0.065
-0.115
-0.125
-0.115
-0.105
-0.105
-0.12
-0.125
-0.135
-0.15
-0.14
-0.145
-0.13
-0.12
-0.12
-0.11
-0.12
-0.13
-0.135
-0.13
-0.115
-0.085
-0.085
-0.095
-0.125
-0.125
-0.095
-0.08
-0.075
-0.07
-0.085
-0.075
-0.065
-0.065
-0.085
-0.125
-0.14
-0.14
-0.125
-0.08
-0.03
-0.03
-0.04
-0.065
-0.08
-0.045
-0.04
-0.04
-0.045
-0.055
-0.055
-0.05
-0.045
-0.04
-0.06
-0.08
-0.095
-0.09
-0.085
-0.095
-0.105
-0.1
-0.11
-0.1
-0.105
-0.08
-0.08
-0.09
-0.09
-0.08
-0.07
-0.075
-0.085
-0.095
-0.095
-0.085
-0.055
-0.03
-0.07
-0.115
-0.145
-0.135
-0.105
-0.085
-0.09
-0.11
-0.13
-0.115
-0.095
-0.105
-0.095
-0.1
-0.095
-0.08
-0.085
-0.095
-0.13
-0.15
-0.14
-0.1
-0.025
0.055
0.175
0.275
0.38
0.49
0.615
0.755
0.9
1.045
1.15
1.19
1.14
1.015
0.785
0.41
0.03
-0.215
-0.32
-0.345
-0.315
-0.255
-0.225
-0.19
-0.195
-0.215
-0.235
-0.235
-0.26
-0.27
-0.27
-0.27
-0.265
-0.275
-0.265
-0.24
-0.22
-0.22
-0.235
-0.245
-0.23
-0.21
-0.2
-0.205
-0.205
-0.215
-0.215
-0.2
-0.18
-0.18
-0.195
-0.21
-0.215
-0.205
-0.205
-0.215
-0.215
-0.215
-0.2
-0.18
-0.165
-0.165
-0.175
-0.18
-0.17
-0.16
-0.155
-0.15
-0.16
-0.15
-0.155
-0.155
-0.15
-0.16
-0.16
-0.17
-0.165
-0.155
-0.15
-0.135
-0.145
-0.14
-0.13
-0.13
-0.12
-0.125
-0.115
-0.135
-0.135
-0.13
-0.115
-0.085
-0.1
-0.125
-0.135
-0.13
-0.11
-0.11
-0.105
-0.1
-0.1
-0.09
-0.085
-0.06
-0.06
-0.08
-0.08
-0.08
-0.065
-0.065
-0.075
-0.07
-0.08
-0.08
-0.08
-0.07
-0.065
-0.075
-0.08
-0.08
-0.085
-0.095
-0.105
-0.115
-0.125
-0.105
-0.09
-0.09
-0.105
-0.12
-0.13
-0.125
-0.11
-0.11
-0.125
-0.135
-0.13
-0.14
-0.16
-0.155
-0.17
-0.19
-0.21
-0.205
-0.19
-0.185
-0.18
-0.185
-0.17
-0.175
-0.17
-0.185
-0.185
-0.205
-0.195
-0.185
-0.18
-0.19
-0.19
-0.19
-0.185
-0.175
-0.17
-0.145
-0.14
-0.15
-0.165
-0.13
-0.1
-0.09
-0.08
-0.085
-0.07
-0.045
-0.03
-0.02
0.035
0.13
0.215
0.235
0.195
0.165
0.135
0.045
-0.145
-0.5
-0.95
-1.38
-1.685
-1.83
-1.885
-1.88
-1.91
-1.895
-1.895
-1.855
-1.8
-1.655
-1.495
-1.375
-1.295
-1.235
-1.185
-1.1
-1
-0.93
-0.875
-0.82
-0.765
-0.7
-0.625
-0.565
-0.535
-0.51
-0.485
-0.46
-0.445
-0.435
-0.41
-0.37
-0.305
-0.215
-0.14
-0.08
-0.03
0.02
0.05
0.07
0.095
0.085
0.11
0.135
0.16
0.18
0.2
0.2
0.215
0.22
0.245
0.26
0.295
0.32
0.345
0.355
0.385
0.405
0.425
0.435
0.455
0.45
0.465
0.49
0.505
0.515
0.525
0.52
0.54
0.55
0.545
0.55
0.56
0.59
0.605
0.605
0.605
0.605
0.605
0.605
0.6
0.61
0.62
0.6
0.58
0.54
0.53
0.525
0.52
0.495
0.485
0.46
0.43
0.405
0.385
0.355
0.345
0.31
0.29
0.26
0.255
0.225
0.2
0.17
0.145
0.13
0.12
0.09
0.065
0.045
0.02
-0.005
-0.005
-0.025
-0.035
-0.045
-0.07
-0.08
-0.08
-0.09
-0.095
-0.125
-0.135
-0.125
-0.1
-0.08
-0.07
-0.065
-0.075
-0.055
-0.025
0.01
0.055
0.09
0.13
0.18
0.21
0.235
0.265
0.3
0.34
0.41
0.51
0.595
0.675
0.75
0.835
0.95
1.08
1.225
1.365
1.49
1.59
1.66
1.68
1.66
1.665
1.64
1.515
1.26
0.88
0.475
0.12
-0.135
-0.365
-0.57
-0.665
-0.67
-0.645
-0.63
-0.615
-0.62
-0.615
-0.62
-0.635
-0.635
-0.635
-0.61
-0.6
-0.605
-0.605
-0.615
-0.645
-0.655
-0.66
-0.665
-0.68
-0.71
-0.715
-0.705
-0.675
-0.66
-0.655
-0.675
-0.735
-0.785
-0.815
-0.83
-0.835
-0.83
-0.835
-0.825
-0.825
-0.82
-0.83
-0.85
-0.87
-0.885
-0.915
-0.93
-0.935
-0.925
-0.91
-0.91
-0.915
-0.92
-0.91
-0.895
-0.875
-0.86
-0.855
-0.845
-0.845
-0.855
-0.875
-0.88
-0.875
-0.87
-0.89
-0.905
-0.915
-0.9
-0.88
-0.875
-0.885
-0.895
-0.89
-0.87
-0.855
-0.855
-0.835
-0.825
-0.81
-0.79
-0.77
-0.75
-0.735
-0.71
-0.71
-0.68
-0.65
-0.62
-0.61
-0.595
-0.59
-0.575
-0.55
-0.545
-0.52
-0.535
-0.54
-0.545
-0.515
-0.495
-0.48
-0.465
-0.47
-0.445
-0.415
-0.405
-0.395
-0.385
-0.385
-0.37
-0.345
-0.34
-0.335
-0.335
-0.345
-0.32
-0.315
-0.315
-0.315
-0.33
-0.325
-0.33
-0.325
-0.315
-0.3
-0.31
-0.305
-0.295
-0.29
-0.28
-0.275
-0.285
-0.29
-0.275
-0.27
-0.265
-0.26
-0.26
-0.255
-0.255
-0.245
-0.245
-0.265
-0.26
-0.24
-0.225
-0.22
-0.23
-0.255
-0.255
-0.245
-0.22
-0.215
-0.215
-0.22
-0.215
-0.215
-0.2
-0.2
-0.195
-0.21
-0.205
-0.205
-0.205
-0.19
-0.195
-0.205
-0.21
-0.225
-0.21
-0.2
-0.195
-0.18
-0.205
-0.205
-0.2
-0.195
-0.19
-0.185
-0.195
-0.2
-0.19
-0.185
-0.18
-0.18
-0.19
-0.19
-0.19
-0.175
-0.18
-0.18
-0.185
-0.18
-0.175
-0.16
-0.165
-0.17
-0.19
-0.19
-0.185
-0.185
-0.19
-0.2
-0.195
-0.18
-0.165
-0.16
-0.16
-0.155
-0.155
-0.15
-0.145
-0.14
-0.135
-0.14
-0.16
-0.165
-0.155
-0.14
-0.14
-0.145
-0.165
-0.17
-0.16
-0.15
-0.14
-0.15
-0.165
-0.17
-0.15
-0.13
-0.12
-0.13
-0.13
-0.14
-0.145
-0.15
-0.145
-0.13
-0.125
-0.14
-0.135
-0.13
-0.125
-0.135
-0.14
-0.135
-0.13
-0.13
-0.125
-0.13
-0.15
-0.155
-0.16
-0.15
-0.15
-0.15
-0.16
-0.165
-0.14
-0.125
-0.105
-0.115
-0.135
-0.12
-0.12
-0.11
-0.105
-0.12
-0.14
-0.16
-0.155
-0.15
-0.15
-0.13
-0.14
-0.16
-0.145
-0.135
-0.12
-0.115
-0.135
-0.155
-0.145
-0.13
-0.11
-0.11
-0.125
-0.14
-0.135
-0.13
-0.14
-0.145
-0.135
-0.145
-0.135
-0.135
-0.145
-0.15
-0.16
-0.175
-0.17
-0.17
-0.175
-0.18
-0.19
-0.18
-0.185
-0.16
-0.145
-0.155
-0.155
-0.155
-0.17
-0.16
-0.175
-0.175
-0.17
-0.16
-0.14
-0.135
-0.14
-0.13
-0.14
-0.155
-0.15
-0.145
-0.14
-0.15
-0.14
-0.155
-0.135
-0.125
-0.12
-0.115
-0.13
-0.125
-0.13
-0.115
-0.12
-0.12
-0.13
-0.125
-0.12
-0.13
-0.12
-0.135
-0.125
-0.125
-0.13
-0.11
-0.11
-0.105
-0.11
-0.115
-0.105
-0.09
-0.07
-0.06
-0.055
-0.04
-0.04
-0.045
-0.05
-0.05
-0.065
-0.06
-0.04
-0.045
-0.055
-0.065
-0.09
-0.1
-0.1
-0.115
-0.125
-0.13
-0.155
-0.15
-0.15
-0.155
-0.15
-0.155
-0.14
-0.145
-0.14
-0.145
-0.155
-0.165
-0.165
-0.175
-0.18
-0.175
-0.155
-0.14
-0.145
-0.16
-0.185
-0.16
-0.185
-0.205
-0.225
-0.235
-0.23
-0.21
-0.205
-0.2
-0.205
-0.19
-0.175
-0.165
-0.165
-0.165
-0.175
-0.19
-0.19
-0.195
-0.205
-0.22
-0.245
-0.23
-0.19
-0.115
-0.02
0.06
0.155
0.255
0.34
0.415
0.525
0.65
0.76
0.89
1.02
1.135
1.19
1.16
1.075
0.935
0.675
0.28
-0.1
-0.365
-0.47
-0.5
-0.48
-0.435
-0.4
-0.36
-0.35
-0.355
-0.35
-0.345
-0.35
-0.35
-0.345
-0.355
-0.36
-0.355
-0.35
-0.345
-0.345
-0.345
-0.315
-0.3
-0.295
-0.3
-0.305
-0.315
-0.3
-0.3
-0.29
-0.295
-0.305
-0.305
-0.29
-0.285
-0.29
-0.285
-0.28
-0.29
-0.295
-0.285
-0.29
-0.295
-0.295
-0.305
-0.29
-0.275
-0.27
-0.275
-0.265
-0.27
-0.275
-0.26
-0.25
-0.245
-0.25
-0.275
-0.255
-0.25
-0.245
-0.245
-0.25
-0.245
-0.235
-0.215
-0.215
-0.215
-0.215
-0.22
-0.2
-0.19
-0.175
-0.165
-0.175
-0.185
-0.195
-0.18
-0.18
-0.165
-0.16
-0.155
-0.15
-0.135
-0.13
-0.15
-0.155
-0.16
-0.13
-0.12
-0.115
-0.125
-0.135
-0.125
-0.115
-0.095
-0.09
-0.095
-0.09
-0.085
-0.065
-0.07
-0.055
-0.065
-0.06
-0.07
-0.055
-0.045
-0.05
-0.045
-0.045
-0.055
-0.05
-0.05
-0.045
-0.065
-0.075
-0.055
-0.04
-0.02
-0.04
-0.035
-0.03
-0.05
-0.035
-0.035
-0.045
-0.05
-0.055
-0.06
-0.055
-0.055
-0.06
-0.055
-0.075
-0.08
-0.09
-0.095
-0.09
-0.1
-0.11
-0.12
-0.115
-0.105
-0.115
-0.11
-0.12
-0.135
-0.125
-0.125
-0.135
-0.12
-0.135
-0.14
-0.13
-0.135
-0.13
-0.135
-0.145
-0.145
-0.15
-0.145
-0.16
-0.16
-0.165
-0.17
-0.165
-0.145
-0.145
-0.15
-0.165
-0.16
-0.145
-0.125
-0.12
-0.125
-0.14
-0.125
-0.115
-0.09
-0.075
-0.08
-0.085
-0.105
-0.135
-0.15
-0.15
-0.13
-0.095
-0.03
0.04
0.095
0.11
0.115
0.13
0.135
0.125
0.03
-0.21
-0.57
-0.97
-1.32
-1.6
-1.78
-1.87
-1.885
-1.895
-1.875
-1.85
-1.815
-1.76
-1.69
-1.595
-1.49
-1.38
-1.295
-1.235
-1.185
-1.145
-1.105
-1.04
-0.96
-0.88
-0.8
-0.745
-0.7
-0.63
-0.565
-0.5
-0.48
-0.485
-0.48
-0.45
-0.42
-0.38
-0.35
-0.325
-0.275
-0.2
-0.12
-0.045
0.005
0.03
0.04
0.06
0.07
0.09
0.1
0.105
0.105
0.13
0.155
0.195
0.215
0.215
0.215
0.225
0.235
0.25
0.27
0.275
0.275
0.31
0.335
0.35
0.355
0.345
0.35
0.365
0.385
0.415
0.435
0.465
0.47
0.485
0.485
0.465
0.47
0.485
0.52
0.55
0.55
0.535
0.515
0.515
0.515
0.53
0.535
0.545
0.54
0.52
0.52
0.535
0.54
0.565
0.55
0.515
0.455
0.445
0.44
0.425
0.41
0.365
0.315
0.3
0.295
0.29
0.26
0.215
0.175
0.16
0.145
0.14
0.125
0.11
0.075
0.06
0.035
0.02
0.015
0.005
-0.025
-0.03
-0.045
-0.055
-0.08
-0.105
-0.13
-0.125
-0.115
-0.13
-0.15
-0.175
-0.185
-0.17
-0.16
-0.15
-0.17
-0.205
-0.235
-0.225
-0.21
-0.19
-0.21
-0.215
-0.24
-0.235
-0.235
-0.235
-0.225
-0.24
-0.245
-0.225
-0.21
-0.205
-0.22
-0.26
-0.265
-0.26
-0.245
-0.23
-0.245
-0.235
-0.245
-0.245
-0.25
-0.26
-0.265
-0.28
-0.295
-0.285
-0.28
-0.275
-0.275
-0.285
-0.295
-0.28
-0.26
-0.245
-0.245
-0.275
-0.29
-0.27
-0.255
-0.25
-0.265
-0.285
-0.285
-0.265
-0.25
-0.25
-0.275
-0.28
-0.295
-0.28
-0.265
-0.25
-0.255
-0.28
-0.29
-0.285
-0.275
-0.27
-0.265
-0.265
-0.27
-0.26
-0.25
-0.26
-0.26
-0.25
-0.255
-0.245
-0.25
-0.25
-0.255
-0.27
-0.285
-0.27
-0.26
-0.25
-0.26
-0.285
-0.285
-0.275
-0.255
-0.25
-0.265
-0.265
-0.27
-0.25
-0.25
-0.27
-0.265
-0.27
-0.275
-0.26
-0.255
-0.25
-0.235
-0.245
-0.275
-0.285
-0.285
-0.27
-0.27
-0.27
-0.28
-0.275
-0.255
-0.235
-0.21
-0.2
-0.195
-0.2
-0.205
-0.21
-0.215
-0.225
-0.215
-0.21
-0.2
-0.19
-0.195
-0.195
-0.21
-0.215
-0.21
-0.215
-0.24
-0.26
-0.27
-0.26
-0.25
-0.245
-0.24
-0.25
-0.25
-0.25
-0.24
-0.25
-0.25
-0.255
-0.275
-0.285
-0.28
-0.275
-0.265
-0.26
-0.26
-0.25
-0.25
-0.255
-0.255
-0.255
-0.265
-0.265
-0.285
-0.3
-0.305
-0.3
-0.3
-0.305
-0.28
-0.28
-0.285
-0.28
-0.26
-0.245
-0.24
-0.26
-0.26
-0.26
-0.25
-0.245
-0.255
-0.27
-0.29
-0.34
-0.345
-0.315
-0.275
-0.21
-0.135
-0.05
0.045
0.14
0.235
0.3
0.375
0.475
0.59
0.73
0.845
0.915
0.9
0.8
0.68
0.52
0.295
-0.03
-0.36
-0.575
-0.68
-0.685
-0.64
-0.575
-0.535
-0.51
-0.515
-0.48
-0.445
-0.4
-0.395
-0.405
-0.435
-0.43
-0.42
-0.415
-0.41
-0.41
-0.4
-0.375
-0.37
-0.365
-0.385
-0.375
-0.385
-0.38
-0.375
-0.365
-0.36
-0.36
-0.345
-0.335
-0.33
-0.35
-0.365
-0.375
-0.355
-0.355
-0.36
-0.34
-0.335
-0.35
-0.33
-0.32
-0.305
-0.335
-0.335
-0.35
-0.335
-0.315
-0.305
-0.29
-0.31
-0.325
-0.335
-0.325
-0.31
-0.3
-0.3
-0.3
-0.32
-0.295
-0.29
-0.275
-0.295
-0.31
-0.32
-0.325
-0.32
-0.325
-0.33
-0.34
-0.335
-0.31
-0.295
-0.3
-0.295
-0.3
-0.315
-0.29
-0.275
-0.275
-0.265
-0.265
-0.265
-0.265
-0.28
-0.275
-0.245
-0.245
-0.24
-0.225
-0.195
-0.185
-0.225
-0.255
-0.275
-0.255
-0.225
-0.205
-0.21
-0.2
-0.22
-0.215
-0.21
-0.205
-0.19
-0.195
-0.205
-0.205
-0.195
-0.195
-0.23
-0.26
-0.26
-0.24
-0.22
-0.2
-0.205
-0.22
-0.235
-0.24
-0.24
-0.255
-0.255
-0.245
-0.23
-0.24
-0.23
-0.245
-0.23
-0.22
-0.22
-0.225
-0.23
-0.235
-0.235
-0.245
-0.255
-0.23
-0.23
-0.225
-0.235
-0.235
-0.24
-0.225
-0.225
-0.21
-0.195
-0.185
-0.2
-0.21
-0.235
-0.25
-0.25
-0.245
-0.255
-0.255
-0.24
-0.245
-0.24
-0.21
-0.21
-0.195
-0.185
-0.18
-0.17
-0.175
-0.175
-0.17
-0.15
-0.14
-0.15
-0.16
-0.165
-0.17
-0.15
-0.15
-0.17
-0.19
-0.195
-0.195
-0.195
-0.205
-0.21
-0.225
-0.225
-0.21
-0.195
-0.19
-0.205
-0.225
-0.22
-0.21
-0.2
-0.185
-0.19
-0.19
-0.185
-0.155
-0.13
-0.13
-0.135
-0.15
-0.175
-0.18
-0.185
-0.195
-0.205
-0.215
-0.235
-0.22
-0.18
-0.18
-0.195
-0.205
-0.195
-0.18
-0.18
-0.19
-0.19
-0.2
-0.195
-0.19
-0.18
-0.18
-0.195
-0.225
-0.245
-0.225
-0.19
-0.135
-0.07
0.01
0.1
0.185
0.3
0.405
0.51
0.615
0.75
0.9
1.025
1.12
1.15
1.095
0.985
0.805
0.5
0.08
-0.235
-0.395
-0.465
-0.47
-0.45
-0.395
-0.34
-0.31
-0.31
-0.305
-0.305
-0.31
-0.305
-0.305
-0.315
-0.315
-0.315
-0.315
-0.31
-0.335
-0.325
-0.305
-0.28
-0.27
-0.255
-0.26
-0.26
-0.265
-0.28
-0.3
-0.295
-0.28
-0.285
-0.28
-0.265
-0.27
-0.27
-0.26
-0.275
-0.265
-0.25
-0.25
-0.245
-0.26
-0.255
-0.245
-0.25
-0.24
-0.235
-0.23
-0.24
-0.23
-0.215
-0.205
-0.2
-0.195
-0.19
-0.175
-0.16
-0.15
-0.16
-0.17
-0.165
-0.16
-0.13
-0.115
-0.115
-0.12
-0.105
-0.095
-0.08
-0.08
-0.085
-0.085
-0.07
-0.05
-0.04
-0.04
-0.045
-0.045
-0.045
-0.03
-0.035
-0.02
-0.025
-0.025
-0.01
-0.01
0.005
0
-0.005
-0.015
-0.01
-0.025
-0.025
-0.025
-0.045
-0.06
-0.065
-0.055
-0.05
-0.065
-0.055
-0.075
-0.08
-0.085
-0.075
-0.08
-0.09
-0.095
-0.095
-0.09
-0.11
-0.105
-0.115
-0.11
-0.13
-0.135
-0.145
-0.135
-0.14
-0.15
-0.145
-0.145
-0.14
-0.14
-0.12
-0.12
-0.145
-0.15
-0.175
-0.185
-0.18
-0.19
-0.185
-0.185
-0.205
-0.195
-0.205
-0.21
-0.225
-0.235
-0.215
-0.225
-0.225
-0.24
-0.25
-0.235
-0.225
-0.21
-0.225
-0.215
-0.235
-0.22
-0.205
-0.195
-0.195
-0.185
-0.19
-0.175
-0.17
-0.165
-0.17
-0.16
-0.155
-0.14
-0.135
-0.13
-0.125
-0.155
-0.16
-0.16
-0.16
-0.165
-0.16
-0.16
-0.175
-0.16
-0.165
-0.165
-0.16
-0.18
-0.195
-0.19
-0.17
-0.14
-0.14
-0.15
-0.15
-0.13
-0.125
-0.115
-0.145
-0.175
-0.19
-0.18
-0.18
-0.165
-0.18
-0.195
-0.205
-0.185
-0.18
-0.17
-0.175
-0.18
-0.18
-0.185
-0.16
-0.165
-0.135
-0.15
-0.175
-0.18
-0.175
-0.16
-0.115
-0.055
0.05
0.155
0.255
0.34
0.44
0.555
0.69
0.855
1.015
1.115
1.14
1.1
0.99
0.84
0.565
0.18
-0.14
-0.325
-0.38
-0.385
-0.355
-0.32
-0.25
-0.22
-0.215
-0.23
-0.245
-0.24
-0.265
-0.295
-0.32
-0.335
-0.32
-0.31
-0.3
-0.29
-0.285
-0.255
-0.25
-0.26
-0.26
-0.255
-0.255
-0.255
-0.25
-0.25
-0.255
-0.26
-0.265
-0.27
-0.25
-0.235
-0.24
-0.255
-0.265
-0.265
-0.265
-0.24
-0.23
-0.235
-0.22
-0.22
-0.21
-0.2
-0.205
-0.21
-0.21
-0.2
-0.185
-0.18
-0.175
-0.175
-0.195
-0.175
-0.19
-0.175
-0.16
-0.155
-0.165
-0.15
-0.135
-0.115
-0.115
-0.13
-0.12
-0.105
-0.08
-0.06
-0.06
-0.075
-0.08
-0.08
-0.075
-0.055
-0.055
-0.055
-0.05
-0.03
-0.025
-0.015
-0.02
-0.03
-0.05
-0.045
-0.05
-0.04
-0.03
-0.04
-0.04
-0.06
-0.035
-0.045
-0.06
-0.08
-0.1
-0.12
-0.11
-0.125
-0.13
-0.135
-0.135
-0.13
-0.13
-0.145
-0.155
-0.17
-0.165
-0.155
-0.12
-0.115
-0.125
-0.145
-0.155
-0.16
-0.15
-0.15
-0.155
-0.16
-0.175
-0.18
-0.175
-0.19
-0.19
-0.2
-0.21
-0.22
-0.205
-0.205
-0.215
-0.22
-0.225
-0.235
-0.23
-0.215
-0.205
-0.215
-0.23
-0.235
-0.24
-0.24
-0.245
-0.235
-0.255
-0.26
-0.26
-0.26
-0.26
-0.265
-0.27
-0.27
-0.25
-0.245
-0.245
-0.245
-0.26
-0.24
-0.225
-0.225
-0.22
-0.22
-0.2
-0.18
-0.17
-0.195
-0.225
-0.245
-0.25
-0.235
-0.235
-0.24
-0.245
-0.255
-0.265
-0.265
-0.25
-0.245
-0.24
-0.25
-0.25
-0.245
-0.25
-0.24
-0.235
-0.225
-0.235
-0.22
-0.21
-0.205
-0.225
-0.24
-0.25
-0.25
-0.24
-0.255
-0.275
-0.28
-0.29
-0.28
-0.26
-0.245
-0.24
-0.25
-0.26
-0.265
-0.27
-0.26
-0.25
-0.25
-0.235
-0.235
-0.22
-0.21
-0.22
-0.24
-0.26
-0.285
-0.28
-0.24
-0.165
-0.095
-0.01
0.075
0.17
0.27
0.34
0.43
0.535
0.68
0.815
0.885
0.87
0.76
0.65
0.48
0.27
-0.04
-0.32
-0.495
-0.585
-0.59
-0.535
-0.475
-0.43
-0.405
-0.41
-0.395
-0.355
-0.34
-0.36
-0.37
-0.4
-0.395
-0.39
-0.365
-0.355
-0.325
-0.315
-0.305
-0.31
-0.315
-0.335
-0.355
-0.345
-0.325
-0.315
-0.325
-0.325
-0.335
-0.33
-0.33
-0.335
-0.32
-0.31
-0.29
-0.29
-0.29
-0.295
-0.285
-0.28
-0.27
-0.28
-0.285
-0.29
-0.275
-0.265
-0.27
-0.245
-0.245
-0.24
-0.25
-0.235
-0.225
-0.215
-0.21
-0.2
-0.2
-0.185
-0.18
-0.18
-0.16
-0.145
-0.135
-0.14
-0.15
-0.135
-0.14
-0.12
-0.11
-0.105
-0.11
-0.105
-0.11
-0.095
-0.1
-0.095
-0.085
-0.095
-0.09
-0.095
-0.09
-0.09
-0.1
-0.105
-0.11
-0.1
-0.09
-0.115
-0.135
-0.145
-0.155
-0.155
-0.16
-0.175
-0.19
-0.205
-0.215
-0.205
-0.2
-0.205
-0.23
-0.22
-0.22
-0.23
-0.235
-0.225
-0.23
-0.23
-0.22
-0.23
-0.24
-0.25
-0.27
-0.275
-0.27
-0.27
-0.27
-0.27
-0.275
-0.275
-0.27
-0.275
-0.29
-0.285
-0.295
-0.3
-0.315
-0.295
-0.31
-0.31
-0.31
-0.31
-0.3
-0.31
-0.295
-0.305
-0.32
-0.33
-0.335
-0.335
-0.335
-0.345
-0.36
-0.37
-0.335
-0.32
-0.315
-0.31
-0.32
-0.325
-0.31
-0.295
-0.3
-0.305
-0.295
-0.285
-0.265
-0.26
-0.275
-0.26
-0.29
-0.305
-0.31
-0.31
-0.31
-0.33
-0.35
-0.355
-0.34
-0.325
-0.305
-0.3
-0.31
-0.315
-0.315
-0.305
-0.29
-0.28
-0.28
-0.285
-0.285
-0.27
-0.275
-0.265
-0.28
-0.29
-0.3
-0.295
-0.3
-0.305
-0.33
-0.325
-0.325
-0.315
-0.315
-0.31
-0.32
-0.325
-0.325
-0.31
-0.3
-0.31
-0.31
-0.31
-0.305
-0.29
-0.295
-0.295
-0.31
-0.33
-0.325
-0.33
-0.33
-0.32
-0.295
-0.235
-0.145
-0.055
0.045
0.145
0.235
0.32
0.425
0.53
0.65
0.76
0.85
0.925
0.945
0.895
0.795
0.625
0.345
-0.015
-0.335
-0.525
-0.605
-0.63
-0.625
-0.59
-0.525
-0.495
-0.475
-0.465
-0.465
-0.465
-0.42
-0.41
-0.42
-0.425
-0.44
-0.44
-0.425
-0.415
-0.405
-0.395
-0.385
-0.38
-0.365
-0.35
-0.345
-0.34
-0.345
-0.365
-0.36
-0.345
-0.335
-0.335
-0.35
-0.36
-0.345
-0.33
-0.32
-0.32
-0.32
-0.33
-0.325
-0.315
-0.31
-0.29
-0.3
-0.32
-0.315
-0.315
-0.305
-0.3
-0.31
-0.32
-0.31
-0.31
-0.29
-0.295
-0.285
-0.29
-0.275
-0.265
-0.255
-0.25
-0.24
-0.22
-0.21
-0.195
-0.19
-0.18
-0.185
-0.19
-0.18
-0.17
-0.165
-0.17
-0.165
-0.16
-0.15
-0.14
-0.13
-0.13
-0.125
-0.125
-0.11
-0.12
-0.1
-0.1
-0.1
-0.11
-0.095
-0.085
-0.095
-0.095
-0.1
-0.115
-0.105
-0.115
-0.1
-0.13
-0.155
-0.17
-0.17
-0.165
-0.165
-0.16
-0.17
-0.165
-0.17
-0.185
-0.175
-0.175
-0.175
-0.185
-0.175
-0.175
-0.175
-0.175
-0.17
